 #calculated the component:  1  2  3
 #tolerance:    2.000000E-04
 #broadening:    3.675000E-03Ha
 #scissors shift:    0.000000E+00Ha
 #energy window:    8.462793E+01eV    3.110019E+00Ha
 # Energy      Tot-Re Chi(-2w,w,w)  Tot-Re Chi(-2w,w,w)
 # eV          *10^-7 esu        *10^-12 m/V SI units 
 # 
       0.010000  -5.705176E+02  -2.389778E+04
       0.020000  -4.487008E+02  -1.879514E+04
       0.030000  -2.920267E+02  -1.223239E+04
       0.040000  -1.003889E+02  -4.205081E+03
       0.050000   1.218542E+02   5.104216E+03
       0.060000   3.649068E+02   1.528518E+04
       0.070000   6.137802E+02   2.570997E+04
       0.080000   8.501300E+02   3.561016E+04
       0.090000   1.055375E+03   4.420743E+04
       0.100000   1.214130E+03   5.085736E+04
       0.110000   1.316867E+03   5.516081E+04
       0.120000   1.361146E+03   5.701553E+04
       0.130000   1.351356E+03   5.660548E+04
       0.140000   1.297282E+03   5.434042E+04
       0.150000   1.211876E+03   5.076294E+04
       0.160000   1.108765E+03   4.644385E+04
       0.170000   1.000051E+03   4.189002E+04
       0.180000   8.948975E+02   3.748538E+04
       0.190000   7.991024E+02   3.347273E+04
       0.200000   7.154564E+02   2.996897E+04
       0.210000   6.445281E+02   2.699793E+04
       0.220000   5.855095E+02   2.452576E+04
       0.230000   5.369089E+02   2.248999E+04
       0.240000   4.970255E+02   2.081935E+04
       0.250000   4.642234E+02   1.944535E+04
       0.260000   4.370641E+02   1.830770E+04
       0.270000   4.143475E+02   1.735615E+04
       0.280000   3.951064E+02   1.655018E+04
       0.290000   3.785780E+02   1.585784E+04
       0.300000   3.641694E+02   1.525429E+04
       0.310000   3.514236E+02   1.472040E+04
       0.320000   3.399902E+02   1.424148E+04
       0.330000   3.296012E+02   1.380630E+04
       0.340000   3.200515E+02   1.340628E+04
       0.350000   3.111841E+02   1.303485E+04
       0.360000   3.028787E+02   1.268695E+04
       0.370000   2.950429E+02   1.235873E+04
       0.380000   2.876060E+02   1.204721E+04
       0.390000   2.805140E+02   1.175014E+04
       0.400000   2.737267E+02   1.146584E+04
       0.410000   2.672148E+02   1.119307E+04
       0.420000   2.609588E+02   1.093102E+04
       0.430000   2.549484E+02   1.067925E+04
       0.440000   2.491820E+02   1.043771E+04
       0.450000   2.436674E+02   1.020671E+04
       0.460000   2.384220E+02   9.986998E+03
       0.470000   2.334745E+02   9.779756E+03
       0.480000   2.288645E+02   9.586652E+03
       0.490000   2.246426E+02   9.409807E+03
       0.500000   2.208678E+02   9.251687E+03
       0.510000   2.176010E+02   9.114851E+03
       0.520000   2.148951E+02   9.001507E+03
       0.530000   2.127787E+02   8.912853E+03
       0.540000   2.112380E+02   8.848317E+03
       0.550000   2.102016E+02   8.804905E+03
       0.560000   2.095359E+02   8.777021E+03
       0.570000   2.090580E+02   8.757001E+03
       0.580000   2.085655E+02   8.736369E+03
       0.590000   2.078737E+02   8.707394E+03
       0.600000   2.068468E+02   8.664377E+03
       0.610000   2.054112E+02   8.604244E+03
       0.620000   2.035530E+02   8.526407E+03
       0.630000   2.013025E+02   8.432140E+03
       0.640000   1.987167E+02   8.323827E+03
       0.650000   1.958634E+02   8.204305E+03
       0.660000   1.928105E+02   8.076425E+03
       0.670000   1.896206E+02   7.942809E+03
       0.680000   1.863489E+02   7.805766E+03
       0.690000   1.830435E+02   7.667307E+03
       0.700000   1.797468E+02   7.529214E+03
       0.710000   1.764981E+02   7.393134E+03
       0.720000   1.733359E+02   7.260679E+03
       0.730000   1.703003E+02   7.133522E+03
       0.740000   1.674341E+02   7.013465E+03
       0.750000   1.647843E+02   6.902470E+03
       0.760000   1.624005E+02   6.802616E+03
       0.770000   1.603318E+02   6.715962E+03
       0.780000   1.586205E+02   6.644282E+03
       0.790000   1.572934E+02   6.588690E+03
       0.800000   1.563515E+02   6.549238E+03
       0.810000   1.557638E+02   6.524620E+03
       0.820000   1.554663E+02   6.512159E+03
       0.830000   1.553705E+02   6.508146E+03
       0.840000   1.553777E+02   6.508446E+03
       0.850000   1.553947E+02   6.509157E+03
       0.860000   1.553459E+02   6.507112E+03
       0.870000   1.551800E+02   6.500166E+03
       0.880000   1.548736E+02   6.487332E+03
       0.890000   1.544313E+02   6.468801E+03
       0.900000   1.538833E+02   6.445849E+03
       0.910000   1.532796E+02   6.420562E+03
       0.920000   1.526787E+02   6.395391E+03
       0.930000   1.521347E+02   6.372604E+03
       0.940000   1.516844E+02   6.353742E+03
       0.950000   1.513383E+02   6.339245E+03
       0.960000   1.510786E+02   6.328367E+03
       0.970000   1.508655E+02   6.319440E+03
       0.980000   1.506491E+02   6.310375E+03
       0.990000   1.503821E+02   6.299191E+03
       1.000000   1.500266E+02   6.284299E+03
       1.010000   1.495519E+02   6.264416E+03
       1.020000   1.489254E+02   6.238174E+03
       1.030000   1.481011E+02   6.203643E+03
       1.040000   1.470138E+02   6.158101E+03
       1.050000   1.455858E+02   6.098284E+03
       1.060000   1.437447E+02   6.021165E+03
       1.069999   1.414513E+02   5.925098E+03
       1.079999   1.387265E+02   5.810960E+03
       1.089999   1.356685E+02   5.682869E+03
       1.099999   1.324510E+02   5.548094E+03
       1.109999   1.292968E+02   5.415972E+03
       1.119999   1.264327E+02   5.296001E+03
       1.129999   1.240391E+02   5.195736E+03
       1.139999   1.222144E+02   5.119306E+03
       1.149999   1.209669E+02   5.067048E+03
       1.159999   1.202306E+02   5.036210E+03
       1.169999   1.198954E+02   5.022165E+03
       1.179999   1.198346E+02   5.019620E+03
       1.189999   1.199271E+02   5.023493E+03
       1.199999   1.200693E+02   5.029451E+03
       1.209999   1.201825E+02   5.034193E+03
       1.219999   1.202148E+02   5.035545E+03
       1.229999   1.201409E+02   5.032449E+03
       1.239999   1.199593E+02   5.024842E+03
       1.249999   1.196877E+02   5.013467E+03
       1.259999   1.193578E+02   4.999649E+03
       1.269999   1.190096E+02   4.985062E+03
       1.279999   1.186864E+02   4.971524E+03
       1.289999   1.184312E+02   4.960834E+03
       1.299999   1.182828E+02   4.954618E+03
       1.309999   1.182727E+02   4.954194E+03
       1.319999   1.184215E+02   4.960430E+03
       1.329999   1.187369E+02   4.973640E+03
       1.339999   1.192117E+02   4.993529E+03
       1.349999   1.198250E+02   5.019216E+03
       1.359999   1.205438E+02   5.049328E+03
       1.369999   1.213275E+02   5.082156E+03
       1.379999   1.221314E+02   5.115829E+03
       1.389999   1.229104E+02   5.148460E+03
       1.399999   1.236218E+02   5.178258E+03
       1.409999   1.242274E+02   5.203625E+03
       1.419999   1.246969E+02   5.223293E+03
       1.429999   1.250121E+02   5.236494E+03
       1.439999   1.251699E+02   5.243104E+03
       1.449999   1.251843E+02   5.243709E+03
       1.459999   1.250846E+02   5.239532E+03
       1.469999   1.249107E+02   5.232246E+03
       1.479999   1.247072E+02   5.223724E+03
       1.489999   1.245171E+02   5.215762E+03
       1.499999   1.243753E+02   5.209820E+03
       1.509999   1.243029E+02   5.206789E+03
       1.519999   1.243037E+02   5.206821E+03
       1.529999   1.243613E+02   5.209234E+03
       1.539999   1.244394E+02   5.212506E+03
       1.549999   1.244835E+02   5.214354E+03
       1.559999   1.244245E+02   5.211880E+03
       1.569999   1.241840E+02   5.201805E+03
       1.579999   1.236821E+02   5.180783E+03
       1.589999   1.228469E+02   5.145800E+03
       1.599999   1.216257E+02   5.094644E+03
       1.609999   1.199965E+02   5.026400E+03
       1.619999   1.179794E+02   4.941910E+03
       1.629999   1.156427E+02   4.844030E+03
       1.639999   1.130991E+02   4.737485E+03
       1.649999   1.104897E+02   4.628181E+03
       1.659999   1.079569E+02   4.522088E+03
       1.669999   1.056167E+02   4.424064E+03
       1.679999   1.035398E+02   4.337064E+03
       1.689999   1.017479E+02   4.262007E+03
       1.699999   1.002260E+02   4.198258E+03
       1.709999   9.894144E+01   4.144449E+03
       1.719999   9.786359E+01   4.099301E+03
       1.729999   9.697646E+01   4.062140E+03
       1.739999   9.628116E+01   4.033016E+03
       1.749999   9.579015E+01   4.012448E+03
       1.759999   9.551755E+01   4.001030E+03
       1.769999   9.547049E+01   3.999058E+03
       1.779999   9.564411E+01   4.006331E+03
       1.789999   9.602071E+01   4.022106E+03
       1.799999   9.657166E+01   4.045184E+03
       1.809999   9.726012E+01   4.074023E+03
       1.819999   9.804279E+01   4.106807E+03
       1.829999   9.886959E+01   4.141440E+03
       1.839999   9.968214E+01   4.175476E+03
       1.849999   1.004131E+02   4.206095E+03
       1.859999   1.009890E+02   4.230218E+03
       1.869999   1.013372E+02   4.244801E+03
       1.879999   1.013963E+02   4.247278E+03
       1.889999   1.011285E+02   4.236061E+03
       1.899999   1.005303E+02   4.211003E+03
       1.909999   9.963930E+01   4.173681E+03
       1.919999   9.853415E+01   4.127389E+03
       1.929999   9.732509E+01   4.076744E+03
       1.939999   9.613616E+01   4.026942E+03
       1.949999   9.508252E+01   3.982807E+03
       1.959999   9.424865E+01   3.947878E+03
       1.969999   9.367250E+01   3.923745E+03
       1.979999   9.333828E+01   3.909745E+03
       1.989999   9.317773E+01   3.903020E+03
       1.999999   9.307805E+01   3.898844E+03
       2.009999   9.289447E+01   3.891154E+03
       2.019999   9.246544E+01   3.873183E+03
       2.029999   9.162988E+01   3.838183E+03
       2.039999   9.024672E+01   3.780246E+03
       2.049999   8.821778E+01   3.695258E+03
       2.059999   8.551366E+01   3.581988E+03
       2.069999   8.219785E+01   3.443095E+03
       2.079999   7.843961E+01   3.285671E+03
       2.089999   7.450447E+01   3.120836E+03
       2.099999   7.071788E+01   2.962224E+03
       2.109999   6.740991E+01   2.823660E+03
       2.119999   6.485855E+01   2.716789E+03
       2.129999   6.324943E+01   2.649386E+03
       2.139999   6.266002E+01   2.624697E+03
       2.149999   6.306576E+01   2.641692E+03
       2.159999   6.435943E+01   2.695881E+03
       2.169999   6.637493E+01   2.780307E+03
       2.179999   6.890975E+01   2.886485E+03
       2.189999   7.174401E+01   3.005206E+03
       2.199999   7.465703E+01   3.127226E+03
       2.209999   7.744298E+01   3.243924E+03
       2.219999   7.992627E+01   3.347944E+03
       2.229999   8.197535E+01   3.433776E+03
       2.239999   8.351222E+01   3.498152E+03
       2.249999   8.451454E+01   3.540137E+03
       2.259999   8.500875E+01   3.560838E+03
       2.269999   8.505471E+01   3.562764E+03
       2.279999   8.472607E+01   3.548997E+03
       2.289999   8.409211E+01   3.522442E+03
       2.299999   8.320647E+01   3.485344E+03
       2.309999   8.210443E+01   3.439182E+03
       2.319999   8.080730E+01   3.384848E+03
       2.329999   7.932993E+01   3.322964E+03
       2.339999   7.768793E+01   3.254184E+03
       2.349999   7.590290E+01   3.179413E+03
       2.359999   7.400545E+01   3.099933E+03
       2.369999   7.203657E+01   3.017461E+03
       2.379999   7.004788E+01   2.934159E+03
       2.389999   6.810033E+01   2.852580E+03
       2.399999   6.626083E+01   2.775527E+03
       2.409999   6.459675E+01   2.705822E+03
       2.419999   6.316984E+01   2.646052E+03
       2.429999   6.203171E+01   2.598378E+03
       2.439999   6.122212E+01   2.564466E+03
       2.449999   6.076890E+01   2.545482E+03
       2.459999   6.068718E+01   2.542059E+03
       2.469999   6.097599E+01   2.554156E+03
       2.479999   6.161253E+01   2.580820E+03
       2.489999   6.254671E+01   2.619950E+03
       2.499999   6.369894E+01   2.668215E+03
       2.509999   6.496384E+01   2.721199E+03
       2.519999   6.622052E+01   2.773839E+03
       2.529999   6.734832E+01   2.821080E+03
       2.539999   6.824366E+01   2.858584E+03
       2.549999   6.883270E+01   2.883258E+03
       2.559999   6.907573E+01   2.893437E+03
       2.569999   6.896337E+01   2.888731E+03
       2.579999   6.850831E+01   2.869669E+03
       2.589999   6.773692E+01   2.837357E+03
       2.599999   6.668339E+01   2.793227E+03
       2.609999   6.538675E+01   2.738914E+03
       2.619999   6.388965E+01   2.676204E+03
       2.629999   6.223769E+01   2.607006E+03
       2.639999   6.047772E+01   2.533285E+03
       2.649999   5.865456E+01   2.456916E+03
       2.659999   5.680679E+01   2.379517E+03
       2.669999   5.496440E+01   2.302343E+03
       2.679999   5.315047E+01   2.226362E+03
       2.689999   5.138765E+01   2.152521E+03
       2.699999   4.970664E+01   2.082107E+03
       2.709999   4.815212E+01   2.016991E+03
       2.719999   4.678156E+01   1.959581E+03
       2.729999   4.565501E+01   1.912393E+03
       2.739999   4.481898E+01   1.877373E+03
       2.749999   4.429140E+01   1.855274E+03
       2.759999   4.405484E+01   1.845365E+03
       2.769999   4.406127E+01   1.845634E+03
       2.779999   4.424608E+01   1.853376E+03
       2.789999   4.454589E+01   1.865934E+03
       2.799999   4.491464E+01   1.881380E+03
       2.809999   4.533416E+01   1.898953E+03
       2.819999   4.581614E+01   1.919142E+03
       2.829999   4.639347E+01   1.943325E+03
       2.839999   4.710106E+01   1.972964E+03
       2.849999   4.795137E+01   2.008582E+03
       2.859999   4.891471E+01   2.048935E+03
       2.869999   4.991398E+01   2.090792E+03
       2.879999   5.083741E+01   2.129472E+03
       2.889999   5.156465E+01   2.159935E+03
       2.899999   5.199529E+01   2.177974E+03
       2.909999   5.207024E+01   2.181113E+03
       2.919999   5.178084E+01   2.168991E+03
       2.929999   5.116627E+01   2.143248E+03
       2.939999   5.030181E+01   2.107037E+03
       2.949999   4.928120E+01   2.064286E+03
       2.959999   4.819687E+01   2.018866E+03
       2.969999   4.712335E+01   1.973898E+03
       2.979999   4.610895E+01   1.931407E+03
       2.989999   4.517731E+01   1.892383E+03
       2.999999   4.433548E+01   1.857120E+03
       3.009999   4.358211E+01   1.825563E+03
       3.019999   4.291047E+01   1.797429E+03
       3.029999   4.230611E+01   1.772114E+03
       3.039999   4.174395E+01   1.748566E+03
       3.049999   4.119132E+01   1.725418E+03
       3.059999   4.062019E+01   1.701495E+03
       3.069999   4.002417E+01   1.676528E+03
       3.079999   3.943133E+01   1.651696E+03
       3.089999   3.890494E+01   1.629646E+03
       3.099999   3.853095E+01   1.613981E+03
       3.109999   3.839711E+01   1.608375E+03
       3.119999   3.857044E+01   1.615635E+03
       3.129999   3.907808E+01   1.636899E+03
       3.139999   3.989695E+01   1.671199E+03
       3.149999   4.095685E+01   1.715597E+03
       3.159999   4.215806E+01   1.765913E+03
       3.169999   4.339634E+01   1.817782E+03
       3.179999   4.458452E+01   1.867552E+03
       3.189998   4.566280E+01   1.912719E+03
       3.199998   4.659767E+01   1.951879E+03
       3.209998   4.737404E+01   1.984399E+03
       3.219998   4.798643E+01   2.010051E+03
       3.229998   4.843217E+01   2.028722E+03
       3.239998   4.870773E+01   2.040265E+03
       3.249998   4.880821E+01   2.044474E+03
       3.259998   4.872997E+01   2.041196E+03
       3.269998   4.847588E+01   2.030553E+03
       3.279998   4.806181E+01   2.013208E+03
       3.289998   4.752139E+01   1.990571E+03
       3.299998   4.690658E+01   1.964818E+03
       3.309998   4.628260E+01   1.938681E+03
       3.319998   4.571802E+01   1.915032E+03
       3.329998   4.527260E+01   1.896374E+03
       3.339998   4.498633E+01   1.884383E+03
       3.349998   4.487319E+01   1.879644E+03
       3.359998   4.492112E+01   1.881651E+03
       3.369998   4.509720E+01   1.889027E+03
       3.379998   4.535529E+01   1.899838E+03
       3.389998   4.564374E+01   1.911920E+03
       3.399998   4.591240E+01   1.923174E+03
       3.409998   4.611892E+01   1.931825E+03
       3.419998   4.623430E+01   1.936658E+03
       3.429998   4.624642E+01   1.937165E+03
       3.439998   4.616020E+01   1.933554E+03
       3.449998   4.599386E+01   1.926586E+03
       3.459998   4.577236E+01   1.917308E+03
       3.469998   4.552023E+01   1.906747E+03
       3.479998   4.525625E+01   1.895690E+03
       3.489998   4.499083E+01   1.884571E+03
       3.499998   4.472628E+01   1.873490E+03
       3.509998   4.445897E+01   1.862293E+03
       3.519998   4.418232E+01   1.850705E+03
       3.529998   4.388974E+01   1.838449E+03
       3.539998   4.357699E+01   1.825349E+03
       3.549998   4.324336E+01   1.811374E+03
       3.559998   4.289148E+01   1.796634E+03
       3.569998   4.252573E+01   1.781313E+03
       3.579998   4.214971E+01   1.765563E+03
       3.589998   4.176420E+01   1.749415E+03
       3.599998   4.136673E+01   1.732766E+03
       3.609998   4.095356E+01   1.715459E+03
       3.619998   4.052314E+01   1.697429E+03
       3.629998   4.007943E+01   1.678843E+03
       3.639998   3.963329E+01   1.660155E+03
       3.649998   3.920147E+01   1.642067E+03
       3.659998   3.880427E+01   1.625429E+03
       3.669998   3.846321E+01   1.611143E+03
       3.679998   3.819974E+01   1.600107E+03
       3.689998   3.803419E+01   1.593172E+03
       3.699998   3.798422E+01   1.591079E+03
       3.709998   3.806232E+01   1.594351E+03
       3.719998   3.827321E+01   1.603184E+03
       3.729998   3.861226E+01   1.617387E+03
       3.739998   3.906509E+01   1.636355E+03
       3.749998   3.960775E+01   1.659085E+03
       3.759998   4.020741E+01   1.684204E+03
       3.769998   4.082379E+01   1.710023E+03
       3.779998   4.141225E+01   1.734672E+03
       3.789998   4.192888E+01   1.756313E+03
       3.799998   4.233661E+01   1.773392E+03
       3.809998   4.261044E+01   1.784862E+03
       3.819998   4.274031E+01   1.790302E+03
       3.829998   4.273052E+01   1.789892E+03
       3.839998   4.259609E+01   1.784261E+03
       3.849998   4.235687E+01   1.774241E+03
       3.859998   4.203092E+01   1.760587E+03
       3.869998   4.162870E+01   1.743739E+03
       3.879998   4.115007E+01   1.723690E+03
       3.889998   4.058480E+01   1.700012E+03
       3.899998   3.991649E+01   1.672018E+03
       3.909998   3.912900E+01   1.639032E+03
       3.919998   3.821353E+01   1.600684E+03
       3.929998   3.717431E+01   1.557154E+03
       3.939998   3.603067E+01   1.509249E+03
       3.949998   3.481388E+01   1.458280E+03
       3.959998   3.355971E+01   1.405746E+03
       3.969998   3.229975E+01   1.352969E+03
       3.979998   3.105597E+01   1.300869E+03
       3.989998   2.984086E+01   1.249971E+03
       3.999998   2.866224E+01   1.200601E+03
       4.009998   2.753008E+01   1.153177E+03
       4.019998   2.646260E+01   1.108463E+03
       4.029998   2.548912E+01   1.067686E+03
       4.039998   2.464730E+01   1.032424E+03
       4.049998   2.397444E+01   1.004239E+03
       4.059998   2.349587E+01   9.841927E+02
       4.069998   2.321682E+01   9.725039E+02
       4.079998   2.312298E+01   9.685732E+02
       4.089998   2.318946E+01   9.713579E+02
       4.099998   2.339207E+01   9.798446E+02
       4.109998   2.371358E+01   9.933119E+02
       4.119998   2.414202E+01   1.011259E+03
       4.129998   2.466402E+01   1.033124E+03
       4.139998   2.525919E+01   1.058054E+03
       4.149998   2.589945E+01   1.084874E+03
       4.159998   2.655299E+01   1.112249E+03
       4.169998   2.718925E+01   1.138901E+03
       4.179998   2.778184E+01   1.163723E+03
       4.189998   2.830859E+01   1.185787E+03
       4.199998   2.875099E+01   1.204318E+03
       4.209998   2.909540E+01   1.218745E+03
       4.219998   2.933599E+01   1.228823E+03
       4.229998   2.947710E+01   1.234734E+03
       4.239998   2.953292E+01   1.237072E+03
       4.249998   2.952396E+01   1.236697E+03
       4.259998   2.947183E+01   1.234513E+03
       4.269998   2.939433E+01   1.231267E+03
       4.279998   2.930207E+01   1.227402E+03
