 #calculated the component:  1  2  3
 #tolerance:    2.000000E-03
 #broadening:    1.837465E-03Ha
 #scissors shift:    0.000000E+00Ha
 #energy window:    1.072773E+02eV    3.942369E+00Ha
 # Energy      Tot-Re Chi(-2w,w,w)  Tot-Re Chi(-2w,w,w)
 # eV          *10^-7 esu        *10^-12 m/V SI units 
 # 
       0.010000  -5.033194E+02  -2.108299E+04
       0.020000  -5.033223E+02  -2.108312E+04
       0.030000  -4.731538E+02  -1.981942E+04
       0.040000  -3.923024E+02  -1.643272E+04
       0.050000  -2.376653E+02  -9.955299E+03
       0.060000   2.303045E+00   9.646971E+01
       0.070000   3.059590E+02   1.281598E+04
       0.080000   6.136472E+02   2.570439E+04
       0.090000   8.593576E+02   3.599669E+04
       0.100000   1.007479E+03   4.220118E+04
       0.110000   1.055089E+03   4.419545E+04
       0.120000   1.012966E+03   4.243103E+04
       0.130000   8.956639E+02   3.751748E+04
       0.140000   7.267699E+02   3.044287E+04
       0.150000   5.431020E+02   2.274940E+04
       0.160000   3.819279E+02   1.599816E+04
       0.170000   2.626899E+02   1.100353E+04
       0.180000   1.846742E+02   7.735614E+03
       0.190000   1.374822E+02   5.758842E+03
       0.200000   1.101554E+02   4.614180E+03
       0.210000   9.459091E+01   3.962215E+03
       0.220000   8.563536E+01   3.587085E+03
       0.230000   8.024454E+01   3.361275E+03
       0.240000   7.668781E+01   3.212292E+03
       0.250000   7.400318E+01   3.099838E+03
       0.260000   7.166539E+01   3.001913E+03
       0.270000   6.939409E+01   2.906773E+03
       0.280000   6.704585E+01   2.808410E+03
       0.290000   6.455512E+01   2.704079E+03
       0.300000   6.190382E+01   2.593021E+03
       0.310000   5.910936E+01   2.475967E+03
       0.320000   5.622673E+01   2.355220E+03
       0.330000   5.336478E+01   2.235339E+03
       0.340000   5.071952E+01   2.124534E+03
       0.350000   4.862599E+01   2.036841E+03
       0.360000   4.761489E+01   1.994488E+03
       0.370000   4.841019E+01   2.027801E+03
       0.380000   5.171496E+01   2.166231E+03
       0.390000   5.764136E+01   2.414476E+03
       0.400000   6.509115E+01   2.726532E+03
       0.410000   7.200876E+01   3.016296E+03
       0.420000   7.666914E+01   3.211509E+03
       0.430000   7.858497E+01   3.291760E+03
       0.440000   7.823867E+01   3.277254E+03
       0.450000   7.640182E+01   3.200312E+03
       0.460000   7.374208E+01   3.088901E+03
       0.470000   7.074431E+01   2.963331E+03
       0.480000   6.776544E+01   2.838552E+03
       0.490000   6.510671E+01   2.727183E+03
       0.500000   6.304373E+01   2.640770E+03
       0.510000   6.176470E+01   2.587194E+03
       0.520000   6.121526E+01   2.564179E+03
       0.530000   6.101842E+01   2.555933E+03
       0.540000   6.069762E+01   2.542496E+03
       0.550000   6.004915E+01   2.515333E+03
       0.560000   5.925619E+01   2.482118E+03
       0.570000   5.869528E+01   2.458622E+03
       0.580000   5.863436E+01   2.456070E+03
       0.590000   5.897612E+01   2.470386E+03
       0.600000   5.925936E+01   2.482250E+03
       0.610000   5.900848E+01   2.471741E+03
       0.620000   5.806976E+01   2.432421E+03
       0.630000   5.661532E+01   2.371497E+03
       0.640000   5.497322E+01   2.302713E+03
       0.650000   5.351317E+01   2.241554E+03
       0.660000   5.260095E+01   2.203343E+03
       0.670000   5.251671E+01   2.199815E+03
       0.680000   5.325650E+01   2.230803E+03
       0.690000   5.432698E+01   2.275643E+03
       0.700000   5.484610E+01   2.297388E+03
       0.710000   5.398459E+01   2.261301E+03
       0.720000   5.131336E+01   2.149409E+03
       0.730000   4.688633E+01   1.963970E+03
       0.740000   4.129728E+01   1.729856E+03
       0.750000   3.564156E+01   1.492950E+03
       0.760000   3.108131E+01   1.301931E+03
       0.770000   2.827607E+01   1.184425E+03
       0.780000   2.722475E+01   1.140388E+03
       0.790000   2.753817E+01   1.153516E+03
       0.800000   2.874382E+01   1.204018E+03
       0.810000   3.029604E+01   1.269038E+03
       0.820000   3.156402E+01   1.322151E+03
       0.830000   3.212625E+01   1.345701E+03
       0.840000   3.196608E+01   1.338992E+03
       0.850000   3.128262E+01   1.310364E+03
       0.860000   3.021153E+01   1.265498E+03
       0.870000   2.875856E+01   1.204636E+03
       0.880000   2.693584E+01   1.128286E+03
       0.890000   2.488290E+01   1.042292E+03
       0.900000   2.287002E+01   9.579771E+02
       0.910000   2.124884E+01   8.900693E+02
       0.920000   2.038267E+01   8.537872E+02
       0.930000   2.053779E+01   8.602851E+02
       0.940000   2.180714E+01   9.134553E+02
       0.950000   2.418863E+01   1.013211E+03
       0.960000   2.767346E+01   1.159183E+03
       0.970000   3.208468E+01   1.343960E+03
       0.980000   3.687841E+01   1.544759E+03
       0.990000   4.128076E+01   1.729165E+03
       1.000000   4.464982E+01   1.870287E+03
       1.010000   4.670736E+01   1.956473E+03
       1.020000   4.748222E+01   1.988931E+03
       1.030000   4.710231E+01   1.973017E+03
       1.040000   4.574683E+01   1.916239E+03
       1.050000   4.379270E+01   1.834384E+03
       1.060000   4.179371E+01   1.750651E+03
       1.069999   4.018911E+01   1.683438E+03
       1.079999   3.910998E+01   1.638235E+03
       1.089999   3.852323E+01   1.613657E+03
       1.099999   3.850901E+01   1.613062E+03
       1.109999   3.935129E+01   1.648343E+03
       1.119999   4.134854E+01   1.732004E+03
       1.129999   4.446394E+01   1.862501E+03
       1.139999   4.809927E+01   2.014778E+03
       1.149999   5.130467E+01   2.149045E+03
       1.159999   5.330413E+01   2.232798E+03
       1.169999   5.384947E+01   2.255641E+03
       1.179999   5.322102E+01   2.229317E+03
       1.189999   5.201991E+01   2.179005E+03
       1.199999   5.088066E+01   2.131284E+03
       1.209999   5.023563E+01   2.104265E+03
       1.219999   5.021815E+01   2.103533E+03
       1.229999   5.069404E+01   2.123467E+03
       1.239999   5.141908E+01   2.153837E+03
       1.249999   5.224742E+01   2.188535E+03
       1.259999   5.319149E+01   2.228080E+03
       1.269999   5.430311E+01   2.274643E+03
       1.279999   5.561206E+01   2.329473E+03
       1.289999   5.720154E+01   2.396052E+03
       1.299999   5.919352E+01   2.479493E+03
       1.309999   6.155730E+01   2.578506E+03
       1.319999   6.399827E+01   2.680753E+03
       1.329999   6.607045E+01   2.767553E+03
       1.339999   6.732948E+01   2.820291E+03
       1.349999   6.740347E+01   2.823390E+03
       1.359999   6.608684E+01   2.768239E+03
       1.369999   6.351930E+01   2.660690E+03
       1.379999   6.024164E+01   2.523396E+03
       1.389999   5.696048E+01   2.385955E+03
       1.399999   5.424010E+01   2.272004E+03
       1.409999   5.238272E+01   2.194202E+03
       1.419999   5.145165E+01   2.155202E+03
       1.429999   5.131721E+01   2.149570E+03
       1.439999   5.174421E+01   2.167456E+03
       1.449999   5.252444E+01   2.200138E+03
       1.459999   5.353083E+01   2.242294E+03
       1.469999   5.467645E+01   2.290282E+03
       1.479999   5.588165E+01   2.340765E+03
       1.489999   5.707382E+01   2.390703E+03
       1.499999   5.819272E+01   2.437571E+03
       1.509999   5.918624E+01   2.479188E+03
       1.519999   6.000587E+01   2.513520E+03
       1.529999   6.058187E+01   2.537648E+03
       1.539999   6.078566E+01   2.546184E+03
       1.549999   6.047687E+01   2.533249E+03
       1.559999   5.964982E+01   2.498606E+03
       1.569999   5.846575E+01   2.449007E+03
       1.579999   5.700742E+01   2.387921E+03
       1.589999   5.504364E+01   2.305663E+03
       1.599999   5.222184E+01   2.187463E+03
       1.609999   4.861669E+01   2.036451E+03
       1.619999   4.495937E+01   1.883254E+03
       1.629999   4.212339E+01   1.764460E+03
       1.639999   4.051461E+01   1.697072E+03
       1.649999   4.002485E+01   1.676557E+03
       1.659999   4.031587E+01   1.688747E+03
       1.669999   4.106464E+01   1.720112E+03
       1.679999   4.208683E+01   1.762929E+03
       1.689999   4.332544E+01   1.814812E+03
       1.699999   4.477742E+01   1.875632E+03
       1.709999   4.647053E+01   1.946553E+03
       1.719999   4.844676E+01   2.029333E+03
       1.729999   5.065991E+01   2.122037E+03
       1.739999   5.289882E+01   2.215820E+03
       1.749999   5.489887E+01   2.299598E+03
       1.759999   5.652111E+01   2.367551E+03
       1.769999   5.780017E+01   2.421128E+03
       1.779999   5.886677E+01   2.465806E+03
       1.789999   5.985121E+01   2.507041E+03
       1.799999   6.081760E+01   2.547522E+03
       1.809999   6.171754E+01   2.585218E+03
       1.819999   6.236757E+01   2.612447E+03
       1.829999   6.248279E+01   2.617273E+03
       1.839999   6.179509E+01   2.588467E+03
       1.849999   6.025308E+01   2.523875E+03
       1.859999   5.815426E+01   2.435960E+03
       1.869999   5.600635E+01   2.345989E+03
       1.879999   5.423059E+01   2.271606E+03
       1.889999   5.293645E+01   2.217397E+03
       1.899999   5.178307E+01   2.169084E+03
       1.909999   4.998802E+01   2.093893E+03
       1.919999   4.663855E+01   1.953591E+03
       1.929999   4.129246E+01   1.729654E+03
       1.939999   3.453344E+01   1.446533E+03
       1.949999   2.784795E+01   1.166492E+03
       1.959999   2.267377E+01   9.497565E+02
       1.969999   1.961223E+01   8.215150E+02
       1.979999   1.856914E+01   7.778225E+02
       1.989999   1.932738E+01   8.095836E+02
       1.999999   2.178723E+01   9.126214E+02
       2.009999   2.569930E+01   1.076490E+03
       2.019999   3.034795E+01   1.271212E+03
       2.029999   3.475931E+01   1.455995E+03
       2.039999   3.825044E+01   1.602231E+03
       2.049999   4.067833E+01   1.703930E+03
       2.059999   4.230712E+01   1.772156E+03
       2.069999   4.355147E+01   1.824280E+03
       2.079999   4.472568E+01   1.873465E+03
       2.089999   4.589438E+01   1.922419E+03
       2.099999   4.689622E+01   1.964384E+03
       2.109999   4.746729E+01   1.988305E+03
       2.119999   4.732408E+01   1.982306E+03
       2.129999   4.624153E+01   1.936961E+03
       2.139999   4.425737E+01   1.853848E+03
       2.149999   4.187497E+01   1.754055E+03
       2.159999   3.989782E+01   1.671236E+03
       2.169999   3.892940E+01   1.630671E+03
       2.179999   3.908530E+01   1.637201E+03
       2.189999   4.002998E+01   1.676772E+03
       2.199999   4.103662E+01   1.718938E+03
       2.209999   4.116973E+01   1.724513E+03
       2.219999   3.972776E+01   1.664113E+03
       2.229999   3.670994E+01   1.537702E+03
       2.239999   3.307930E+01   1.385623E+03
       2.249999   3.043465E+01   1.274843E+03
       2.259999   2.988080E+01   1.251644E+03
       2.269999   3.105468E+01   1.300815E+03
       2.279999   3.250709E+01   1.361654E+03
       2.289999   3.297624E+01   1.381305E+03
       2.299999   3.208017E+01   1.343771E+03
       2.309999   3.014913E+01   1.262884E+03
       2.319999   2.779395E+01   1.164230E+03
       2.329999   2.551257E+01   1.068668E+03
       2.339999   2.353565E+01   9.858592E+02
       2.349999   2.198938E+01   9.210889E+02
       2.359999   2.113537E+01   8.853165E+02
       2.369999   2.139403E+01   8.961512E+02
       2.379999   2.310619E+01   9.678698E+02
       2.389999   2.620498E+01   1.097672E+03
       2.399999   3.006433E+01   1.259332E+03
       2.409999   3.376657E+01   1.414411E+03
       2.419999   3.660376E+01   1.533255E+03
       2.429999   3.831603E+01   1.604978E+03
       2.439999   3.896608E+01   1.632207E+03
       2.449999   3.876354E+01   1.623723E+03
       2.459999   3.800257E+01   1.591848E+03
       2.469999   3.699458E+01   1.549625E+03
       2.479999   3.591294E+01   1.504318E+03
       2.489999   3.468630E+01   1.452936E+03
       2.499999   3.304609E+01   1.384231E+03
       2.509999   3.069086E+01   1.285576E+03
       2.519999   2.749796E+01   1.151832E+03
       2.529999   2.362765E+01   9.897127E+02
       2.539999   1.938182E+01   8.118636E+02
       2.549999   1.500149E+01   6.283810E+02
       2.559999   1.077181E+01   4.512085E+02
       2.569999   7.308949E+00   3.061565E+02
       2.579999   5.418146E+00   2.269548E+02
       2.589999   5.455251E+00   2.285090E+02
       2.599999   6.908239E+00   2.893716E+02
       2.609999   8.728441E+00   3.656161E+02
       2.619999   1.015354E+01   4.253107E+02
       2.629999   1.111072E+01   4.654046E+02
       2.639999   1.186336E+01   4.969314E+02
       2.649999   1.254890E+01   5.256472E+02
       2.659999   1.302777E+01   5.457061E+02
       2.669999   1.303253E+01   5.459054E+02
       2.679999   1.241200E+01   5.199128E+02
       2.689999   1.118280E+01   4.684242E+02
       2.699999   9.466938E+00   3.965502E+02
       2.709999   7.569943E+00   3.170890E+02
       2.719999   5.983591E+00   2.506401E+02
       2.729999   5.151164E+00   2.157715E+02
       2.739999   5.284147E+00   2.213418E+02
       2.749999   6.337413E+00   2.654609E+02
       2.759999   8.045453E+00   3.370072E+02
       2.769999   1.005855E+01   4.213314E+02
       2.779999   1.215232E+01   5.090353E+02
       2.789999   1.423382E+01   5.962250E+02
       2.799999   1.610659E+01   6.746714E+02
       2.809999   1.740467E+01   7.290453E+02
       2.819999   1.789439E+01   7.495586E+02
       2.829999   1.775175E+01   7.435836E+02
       2.839999   1.739668E+01   7.287104E+02
       2.849999   1.710764E+01   7.166033E+02
       2.859999   1.687710E+01   7.069465E+02
       2.869999   1.654460E+01   6.930185E+02
       2.879999   1.596458E+01   6.687228E+02
       2.889999   1.509185E+01   6.321661E+02
       2.899999   1.405148E+01   5.885870E+02
       2.909999   1.315748E+01   5.511391E+02
       2.919999   1.275987E+01   5.344840E+02
       2.929999   1.304802E+01   5.465540E+02
       2.939999   1.401839E+01   5.872011E+02
       2.949999   1.553068E+01   6.505476E+02
       2.959999   1.733084E+01   7.259524E+02
       2.969999   1.914249E+01   8.018387E+02
       2.979999   2.082668E+01   8.723860E+02
       2.989999   2.236944E+01   9.370090E+02
       2.999999   2.367964E+01   9.918904E+02
       3.009999   2.448229E+01   1.025512E+03
       3.019999   2.444456E+01   1.023932E+03
       3.029999   2.341186E+01   9.806737E+02
       3.039999   2.158429E+01   9.041208E+02
       3.049999   1.946813E+01   8.154793E+02
       3.059999   1.761182E+01   7.377221E+02
       3.069999   1.635722E+01   6.851698E+02
       3.079999   1.570108E+01   6.576852E+02
       3.089999   1.527787E+01   6.399580E+02
       3.099999   1.453935E+01   6.090227E+02
       3.109999   1.309056E+01   5.483359E+02
       3.119999   1.097219E+01   4.596020E+02
       3.129999   8.692597E+00   3.641146E+02
       3.139999   6.997562E+00   2.931132E+02
       3.149999   6.535106E+00   2.737419E+02
       3.159999   7.588359E+00   3.178605E+02
       3.169999   9.927481E+00   4.158414E+02
       3.179999   1.282059E+01   5.370275E+02
       3.189998   1.529414E+01   6.406393E+02
       3.199998   1.658849E+01   6.948571E+02
       3.209998   1.649853E+01   6.910890E+02
       3.219998   1.535596E+01   6.432288E+02
       3.229998   1.375858E+01   5.763181E+02
       3.239998   1.223079E+01   5.123220E+02
       3.249998   1.097449E+01   4.596983E+02
       3.259998   9.937976E+00   4.162809E+02
       3.269998   9.148942E+00   3.832300E+02
       3.279998   8.895635E+00   3.726195E+02
       3.289998   9.501298E+00   3.979894E+02
       3.299998   1.095635E+01   4.589385E+02
       3.309998   1.279066E+01   5.357738E+02
       3.319998   1.427500E+01   5.979496E+02
       3.329998   1.482121E+01   6.208296E+02
       3.339998   1.427806E+01   5.980781E+02
       3.349998   1.292770E+01   5.415143E+02
       3.359998   1.129865E+01   4.732768E+02
       3.369998   9.952991E+00   4.169099E+02
       3.379998   9.280532E+00   3.887420E+02
       3.389998   9.398364E+00   3.936778E+02
       3.399998   1.023107E+01   4.285579E+02
       3.409998   1.159842E+01   4.858336E+02
       3.419998   1.321554E+01   5.535712E+02
       3.429998   1.475143E+01   6.179063E+02
       3.439998   1.597785E+01   6.692785E+02
       3.449998   1.684578E+01   7.056343E+02
       3.459998   1.742722E+01   7.299898E+02
       3.469998   1.781620E+01   7.462832E+02
       3.479998   1.807922E+01   7.573004E+02
       3.489998   1.825642E+01   7.647232E+02
       3.499998   1.835715E+01   7.689423E+02
       3.509998   1.835211E+01   7.687313E+02
       3.519998   1.820546E+01   7.625886E+02
       3.529998   1.790688E+01   7.500817E+02
       3.539998   1.746111E+01   7.314093E+02
       3.549998   1.688763E+01   7.073874E+02
       3.559998   1.625435E+01   6.808605E+02
       3.569998   1.566663E+01   6.562421E+02
       3.579998   1.518891E+01   6.362316E+02
       3.589998   1.480909E+01   6.203215E+02
       3.599998   1.448993E+01   6.069528E+02
       3.609998   1.420991E+01   5.952233E+02
       3.619998   1.394270E+01   5.840305E+02
       3.629998   1.366800E+01   5.725240E+02
       3.639998   1.344551E+01   5.632042E+02
       3.649998   1.341909E+01   5.620975E+02
       3.659998   1.369667E+01   5.737249E+02
       3.669998   1.424359E+01   5.966342E+02
       3.679998   1.489943E+01   6.241058E+02
       3.689998   1.546232E+01   6.476842E+02
       3.699998   1.577544E+01   6.608000E+02
       3.709998   1.581162E+01   6.623157E+02
       3.719998   1.568716E+01   6.571021E+02
       3.729998   1.554986E+01   6.513509E+02
       3.739998   1.544127E+01   6.468024E+02
       3.749998   1.526432E+01   6.393903E+02
       3.759998   1.487969E+01   6.232789E+02
       3.769998   1.424733E+01   5.967907E+02
       3.779998   1.347834E+01   5.645793E+02
       3.789998   1.274818E+01   5.339943E+02
       3.799998   1.218276E+01   5.103104E+02
       3.809998   1.180635E+01   4.945433E+02
       3.819998   1.154174E+01   4.834593E+02
       3.829998   1.125677E+01   4.715225E+02
       3.839998   1.085399E+01   4.546507E+02
       3.849998   1.036102E+01   4.340015E+02
       3.859998   9.935290E+00   4.161684E+02
       3.869998   9.749243E+00   4.083753E+02
       3.879998   9.853002E+00   4.127216E+02
       3.889998   1.012425E+01   4.240836E+02
       3.899998   1.034545E+01   4.333490E+02
       3.909998   1.037063E+01   4.344040E+02
       3.919998   1.024980E+01   4.293424E+02
       3.929998   1.019373E+01   4.269940E+02
       3.939998   1.040633E+01   4.358993E+02
       3.949998   1.093955E+01   4.582347E+02
       3.959998   1.168033E+01   4.892647E+02
       3.969998   1.243348E+01   5.208125E+02
       3.979998   1.301466E+01   5.451570E+02
       3.989998   1.332169E+01   5.580177E+02
       3.999998   1.335951E+01   5.596019E+02
       4.009998   1.318342E+01   5.522259E+02
       4.019998   1.280605E+01   5.364187E+02
       4.029998   1.213909E+01   5.084812E+02
       4.039998   1.101541E+01   4.614124E+02
       4.049998   9.311392E+00   3.900347E+02
       4.059998   7.097054E+00   2.972807E+02
       4.069998   4.668447E+00   1.955515E+02
       4.079998   2.401100E+00   1.005770E+02
       4.089998   5.599721E-01   2.345606E+01
       4.099998  -7.462149E-01  -3.125738E+01
       4.109998  -1.469248E+00  -6.154371E+01
       4.119998  -1.595169E+00  -6.681829E+01
       4.129998  -1.263103E+00  -5.290873E+01
       4.139998  -8.073235E-01  -3.381709E+01
       4.149998  -5.937378E-01  -2.487043E+01
       4.159998  -8.123150E-01  -3.402617E+01
       4.169998  -1.408870E+00  -5.901461E+01
       4.179998  -2.159895E+00  -9.047347E+01
       4.189998  -2.818822E+00  -1.180746E+02
       4.199998  -3.259608E+00  -1.365381E+02
       4.209998  -3.518228E+00  -1.473712E+02
       4.219998  -3.728636E+00  -1.561847E+02
       4.229998  -4.036050E+00  -1.690617E+02
       4.239998  -4.498740E+00  -1.884428E+02
       4.249998  -5.018361E+00  -2.102086E+02
       4.259998  -5.443654E+00  -2.280233E+02
       4.269998  -5.757166E+00  -2.411556E+02
       4.279998  -6.053414E+00  -2.535648E+02
