 #calculated the component:  1  2  2
 #tolerance:    7.349862E-04
 #broadening:    7.349862E-04Ha
 #scissors shift:    0.000000E+00Ha
 #energy window:    4.905642E+01eV    1.802790E+00Ha
 # Energy      Tot-Re Chi(-2w,w,w)  Tot-Re Chi(-2w,w,w)
 # eV          *10^-7 esu        *10^-12 m/V SI units 
 # 
       0.010000  -9.100902E-01  -3.812177E+01
       0.020000  -9.226690E-01  -3.864867E+01
       0.030000  -9.355374E-01  -3.918770E+01
       0.040000  -9.487045E-01  -3.973924E+01
       0.050000  -9.621800E-01  -4.030370E+01
       0.060000  -9.759734E-01  -4.088148E+01
       0.070000  -9.900952E-01  -4.147301E+01
       0.080000  -1.004556E+00  -4.207874E+01
       0.090000  -1.019367E+00  -4.269913E+01
       0.100000  -1.034539E+00  -4.333467E+01
       0.110000  -1.050085E+00  -4.398586E+01
       0.120000  -1.066017E+00  -4.465323E+01
       0.130000  -1.082349E+00  -4.533733E+01
       0.140000  -1.099093E+00  -4.603872E+01
       0.150000  -1.116265E+00  -4.675801E+01
       0.160000  -1.133879E+00  -4.749582E+01
       0.170000  -1.151951E+00  -4.825279E+01
       0.180000  -1.170496E+00  -4.902962E+01
       0.190000  -1.189532E+00  -4.982700E+01
       0.200000  -1.209077E+00  -5.064570E+01
       0.210000  -1.229149E+00  -5.148647E+01
       0.220000  -1.249767E+00  -5.235014E+01
       0.230000  -1.270953E+00  -5.323756E+01
       0.240000  -1.292727E+00  -5.414962E+01
       0.250000  -1.315111E+00  -5.508726E+01
       0.260000  -1.338130E+00  -5.605146E+01
       0.270000  -1.361807E+00  -5.704324E+01
       0.280000  -1.386169E+00  -5.806370E+01
       0.290000  -1.411242E+00  -5.911396E+01
       0.300000  -1.437055E+00  -6.019522E+01
       0.310000  -1.463638E+00  -6.130873E+01
       0.320000  -1.491023E+00  -6.245581E+01
       0.330000  -1.519242E+00  -6.363784E+01
       0.340000  -1.548330E+00  -6.485629E+01
       0.350000  -1.578324E+00  -6.611270E+01
       0.360000  -1.609264E+00  -6.740869E+01
       0.370000  -1.641189E+00  -6.874596E+01
       0.380000  -1.674143E+00  -7.012634E+01
       0.390000  -1.708171E+00  -7.155172E+01
       0.400000  -1.743322E+00  -7.302412E+01
       0.410000  -1.779647E+00  -7.454567E+01
       0.420000  -1.817199E+00  -7.611864E+01
       0.430000  -1.856035E+00  -7.774540E+01
       0.440000  -1.896216E+00  -7.942850E+01
       0.450000  -1.937806E+00  -8.117062E+01
       0.460000  -1.980873E+00  -8.297460E+01
       0.470000  -2.025489E+00  -8.484349E+01
       0.480000  -2.071731E+00  -8.678048E+01
       0.490000  -2.119682E+00  -8.878902E+01
       0.500000  -2.169427E+00  -9.087274E+01
       0.510000  -2.221059E+00  -9.303552E+01
       0.520000  -2.274679E+00  -9.528151E+01
       0.530000  -2.330390E+00  -9.761513E+01
       0.540000  -2.388305E+00  -1.000411E+02
       0.550000  -2.448547E+00  -1.025645E+02
       0.560000  -2.511242E+00  -1.051907E+02
       0.570000  -2.576530E+00  -1.079255E+02
       0.580000  -2.644560E+00  -1.107751E+02
       0.590000  -2.715489E+00  -1.137462E+02
       0.600000  -2.789490E+00  -1.168459E+02
       0.610000  -2.866747E+00  -1.200820E+02
       0.620000  -2.947457E+00  -1.234628E+02
       0.630000  -3.031834E+00  -1.269972E+02
       0.640000  -3.120110E+00  -1.306949E+02
       0.650000  -3.212534E+00  -1.345663E+02
       0.660000  -3.309374E+00  -1.386228E+02
       0.670000  -3.410924E+00  -1.428765E+02
       0.680000  -3.517500E+00  -1.473407E+02
       0.690000  -3.629446E+00  -1.520299E+02
       0.700000  -3.747134E+00  -1.569596E+02
       0.710000  -3.870972E+00  -1.621469E+02
       0.720000  -4.001402E+00  -1.676103E+02
       0.730000  -4.138904E+00  -1.733700E+02
       0.740000  -4.284006E+00  -1.794480E+02
       0.750000  -4.437280E+00  -1.858683E+02
       0.760000  -4.599352E+00  -1.926572E+02
       0.770000  -4.770905E+00  -1.998432E+02
       0.780000  -4.952684E+00  -2.074575E+02
       0.790000  -5.145500E+00  -2.155342E+02
       0.800000  -5.350238E+00  -2.241102E+02
       0.810000  -5.567852E+00  -2.332256E+02
       0.820000  -5.799373E+00  -2.429236E+02
       0.830000  -6.045904E+00  -2.532502E+02
       0.840000  -6.308606E+00  -2.642543E+02
       0.850000  -6.588685E+00  -2.759862E+02
       0.860000  -6.887344E+00  -2.884964E+02
       0.870000  -7.205730E+00  -3.018329E+02
       0.880000  -7.544818E+00  -3.160366E+02
       0.890000  -7.905251E+00  -3.311344E+02
       0.900000  -8.287100E+00  -3.471292E+02
       0.910000  -8.689604E+00  -3.639893E+02
       0.920000  -9.111166E+00  -3.816476E+02
       0.930000  -9.550971E+00  -4.000701E+02
       0.940000  -1.001803E+01  -4.196344E+02
       0.950000  -1.057207E+01  -4.428418E+02
       0.960000  -1.148208E+01  -4.809603E+02
       0.970000  -1.352115E+01  -5.663724E+02
       0.980000  -1.684493E+01  -7.055987E+02
       0.990000  -1.943006E+01  -8.138845E+02
       1.000000  -2.106039E+01  -8.821757E+02
       1.010000  -2.259876E+01  -9.466148E+02
       1.020000  -2.443628E+01  -1.023584E+03
       1.030000  -2.677337E+01  -1.121480E+03
       1.040000  -2.994039E+01  -1.254140E+03
       1.050000  -3.466914E+01  -1.452217E+03
       1.060000  -4.121429E+01  -1.726380E+03
       1.069999  -4.829310E+01  -2.022897E+03
       1.079999  -5.578151E+01  -2.336571E+03
       1.089999  -6.289464E+01  -2.634525E+03
       1.099999  -6.307957E+01  -2.642271E+03
       1.109999  -4.091206E+01  -1.713721E+03
       1.119999  -6.109909E+00  -2.559313E+02
       1.129999   1.126006E+01   4.716603E+02
       1.139999   3.433796E+01   1.438345E+03
       1.149999   6.601604E+01   2.765274E+03
       1.159999   7.576388E+01   3.173590E+03
       1.169999   7.103077E+01   2.975330E+03
       1.179999   6.329655E+01   2.651359E+03
       1.189999   5.511921E+01   2.308828E+03
       1.199999   4.723240E+01   1.978466E+03
       1.209999   4.168124E+01   1.745940E+03
       1.219999   3.809537E+01   1.595735E+03
       1.229999   3.545909E+01   1.485307E+03
       1.239999   3.334317E+01   1.396676E+03
       1.249999   3.158054E+01   1.322843E+03
       1.259999   3.008550E+01   1.260219E+03
       1.269999   2.880504E+01   1.206583E+03
       1.279999   2.771880E+01   1.161082E+03
       1.289999   2.689662E+01   1.126643E+03
       1.299999   2.665819E+01   1.116656E+03
       1.309999   2.728734E+01   1.143010E+03
       1.319999   2.782346E+01   1.165466E+03
       1.329999   2.777475E+01   1.163426E+03
       1.339999   2.757875E+01   1.155216E+03
       1.349999   2.745715E+01   1.150122E+03
       1.359999   2.742681E+01   1.148851E+03
       1.369999   2.734542E+01   1.145442E+03
       1.379999   2.678415E+01   1.121932E+03
       1.389999   2.599765E+01   1.088987E+03
       1.399999   2.861006E+01   1.198415E+03
       1.409999   3.704416E+01   1.551702E+03
       1.419999   4.636970E+01   1.942329E+03
       1.429999   5.268368E+01   2.206809E+03
       1.439999   5.817979E+01   2.437029E+03
       1.449999   5.837060E+01   2.445022E+03
       1.459999   4.136161E+01   1.732551E+03
       1.469999   1.483393E+01   6.213623E+02
       1.479999   5.052220E+00   2.116269E+02
       1.489999   7.713484E+00   3.231017E+02
       1.499999   1.322983E+01   5.541699E+02
       1.509999   1.733452E+01   7.261066E+02
       1.519999   1.265743E+01   5.301932E+02
       1.529999  -9.437420E+00  -3.953137E+02
       1.539999  -2.879556E+01  -1.206186E+03
       1.549999  -2.957356E+01  -1.238774E+03
       1.559999  -2.628869E+01  -1.101178E+03
       1.569999  -2.690683E+01  -1.127071E+03
       1.579999  -2.734416E+01  -1.145389E+03
       1.589999  -2.592194E+01  -1.085816E+03
       1.599999  -2.480173E+01  -1.038893E+03
       1.609999  -2.375714E+01  -9.951367E+02
       1.619999  -2.008400E+01  -8.412767E+02
       1.629999  -1.009448E+01  -4.228368E+02
       1.639999   2.652832E+00   1.111216E+02
       1.649999   1.453097E+01   6.086717E+02
       1.659999   2.141705E+01   8.971155E+02
       1.669999   2.425702E+01   1.016076E+03
       1.679999   2.549699E+01   1.068015E+03
       1.689999   2.420070E+01   1.013717E+03
       1.699999   1.803213E+01   7.553281E+02
       1.709999   9.833461E+00   4.119031E+02
       1.719999   4.080551E+00   1.709257E+02
       1.729999   1.483938E+00   6.215907E+01
       1.739999   3.378289E-01   1.415094E+01
       1.749999  -2.129334E+00  -8.919333E+01
       1.759999  -3.494226E+00  -1.463658E+02
       1.769999  -3.541707E+00  -1.483547E+02
       1.779999  -4.344294E+00  -1.819733E+02
       1.789999  -5.580914E+00  -2.337728E+02
       1.799999  -6.028411E+00  -2.525175E+02
       1.809999  -5.520685E+00  -2.312499E+02
       1.819999  -4.811623E+00  -2.015488E+02
       1.829999  -4.065343E+00  -1.702887E+02
       1.839999  -2.823601E+00  -1.182747E+02
       1.849999  -7.128624E-01  -2.986031E+01
       1.859999   2.341328E+00   9.807333E+01
       1.869999   4.583770E+00   1.920045E+02
       1.879999   4.962498E+00   2.078686E+02
       1.889999   4.938271E+00   2.068538E+02
       1.899999   7.813658E+00   3.272977E+02
       1.909999   6.812778E+00   2.853730E+02
       1.919999   1.239167E+00   5.190610E+01
       1.929999  -2.013028E+00  -8.432151E+01
       1.939999  -2.420267E+00  -1.013799E+02
       1.949999  -2.197328E+00  -9.204146E+01
       1.959999  -2.697433E+00  -1.129898E+02
       1.969999  -4.122223E+00  -1.726713E+02
       1.979999  -5.745098E+00  -2.406501E+02
       1.989999  -6.835523E+00  -2.863257E+02
       1.999999  -6.162429E+00  -2.581312E+02
       2.009999  -1.138666E+00  -4.769631E+01
       2.019999   7.809523E+00   3.271245E+02
       2.029999   1.289745E+01   5.402472E+02
       2.039999   1.435155E+01   6.011562E+02
       2.049999   1.385665E+01   5.804258E+02
       2.059999   1.321667E+01   5.536185E+02
       2.069999   1.335919E+01   5.595885E+02
       2.079999   1.369455E+01   5.736358E+02
       2.089999   1.308788E+01   5.482237E+02
       2.099999   1.065563E+01   4.463420E+02
       2.109999   6.911673E+00   2.895155E+02
       2.119999   1.575438E+00   6.599180E+01
       2.129999  -1.075897E+00  -4.506705E+01
       2.139999  -2.750502E-01  -1.152127E+01
       2.149999   2.449557E+00   1.026068E+02
       2.159999   7.334914E+00   3.072441E+02
       2.169999   1.563670E+01   6.549885E+02
       2.179999   2.048054E+01   8.578870E+02
       2.189999   1.300968E+01   5.449480E+02
       2.199999   1.498000E+00   6.274807E+01
       2.209999  -5.014240E+00  -2.100360E+02
       2.219999  -6.272759E+00  -2.627527E+02
       2.229999  -6.109533E+00  -2.559155E+02
       2.239999  -6.044652E+00  -2.531978E+02
       2.249999  -4.276815E+00  -1.791468E+02
       2.259999   5.866652E-01   2.457417E+01
       2.269999   8.699974E+00   3.644237E+02
       2.279999   1.439116E+01   6.028156E+02
       2.289999   1.648645E+01   6.905830E+02
       2.299999   1.709923E+01   7.162508E+02
       2.309999   1.510395E+01   6.326727E+02
       2.319999   1.259878E+01   5.277365E+02
       2.329999   1.190267E+01   4.985779E+02
       2.339999   1.227308E+01   5.140934E+02
       2.349999   1.110930E+01   4.653454E+02
       2.359999   8.711529E+00   3.649077E+02
       2.369999   6.494335E+00   2.720341E+02
       2.379999   3.162486E+00   1.324699E+02
       2.389999   8.013279E-01   3.356595E+01
       2.399999   2.117655E+00   8.870411E+01
       2.409999   5.405388E+00   2.264204E+02
       2.419999   8.698782E+00   3.643737E+02
       2.429999   1.149554E+01   4.815239E+02
       2.439999   1.205962E+01   5.051524E+02
       2.449999   6.235529E+00   2.611932E+02
       2.459999  -4.317868E+00  -1.808664E+02
       2.469999  -8.741997E+00  -3.661839E+02
       2.479999  -7.128968E+00  -2.986175E+02
       2.489999  -2.798142E+00  -1.172083E+02
       2.499999   2.236884E+00   9.369837E+01
       2.509999   4.894547E+00   2.050223E+02
       2.519999   4.409446E+00   1.847025E+02
       2.529999   2.758360E+00   1.155419E+02
       2.539999   2.813943E+00   1.178702E+02
       2.549999   4.486396E+00   1.879257E+02
       2.559999   7.173264E+00   3.004730E+02
       2.569999   1.014320E+01   4.248773E+02
       2.579999   1.309012E+01   5.483176E+02
       2.589999   1.516411E+01   6.351927E+02
       2.599999   1.380508E+01   5.782660E+02
       2.609999   7.489369E+00   3.137140E+02
       2.619999  -2.333829E+00  -9.775920E+01
       2.629999  -1.334685E+01  -5.590716E+02
       2.639999  -1.945541E+01  -8.149465E+02
       2.649999  -1.881896E+01  -7.882866E+02
       2.659999  -1.488759E+01  -6.236100E+02
       2.669999  -1.197660E+01  -5.016745E+02
       2.679999  -1.276947E+01  -5.348862E+02
       2.689999  -1.631840E+01  -6.835435E+02
       2.699999  -1.824276E+01  -7.641509E+02
       2.709999  -1.489420E+01  -6.238866E+02
       2.719999  -9.684880E+00  -4.056793E+02
       2.729999  -7.975601E+00  -3.340812E+02
       2.739999  -1.795204E+01  -7.519732E+02
       2.749999  -4.019291E+01  -1.683597E+03
       2.759999  -5.304560E+01  -2.221969E+03
       2.769999  -5.402551E+01  -2.263015E+03
       2.779999  -5.123358E+01  -2.146067E+03
       2.789999  -5.123535E+01  -2.146141E+03
       2.799999  -5.259766E+01  -2.203205E+03
       2.809999  -4.929567E+01  -2.064892E+03
       2.819999  -3.702106E+01  -1.550734E+03
       2.829999  -2.307755E+01  -9.666703E+02
       2.839999  -1.859022E+01  -7.787053E+02
       2.849999  -2.021290E+01  -8.466758E+02
       2.859999  -2.321614E+01  -9.724756E+02
       2.869999  -2.437263E+01  -1.020918E+03
       2.879999  -1.802543E+01  -7.550475E+02
       2.889999  -9.506759E+00  -3.982182E+02
       2.899999  -6.758561E+00  -2.831019E+02
       2.909999  -4.171223E+00  -1.747238E+02
       2.919999   2.917400E-01   1.222038E+01
       2.929999   6.499479E+00   2.722495E+02
       2.939999   9.082481E+00   3.804461E+02
       2.949999   6.314415E+00   2.644976E+02
       2.959999   2.415216E+00   1.011683E+02
       2.969999   9.217508E-02   3.861021E+00
       2.979999  -7.754172E-01  -3.248060E+01
       2.989999  -1.757900E-01  -7.363474E+00
       2.999999   8.480916E-01   3.552478E+01
       3.009999   1.078531E+00   4.517741E+01
       3.019999  -3.710221E-03  -1.554134E-01
       3.029999  -2.131895E+00  -8.930062E+01
       3.039999  -3.406324E+00  -1.426837E+02
       3.049999  -2.026915E+00  -8.490320E+01
       3.059999   2.408359E+00   1.008811E+02
       3.069999   4.995861E+00   2.092661E+02
       3.079999   5.779361E-01   2.420853E+01
       3.089999  -1.052600E+01  -4.409122E+02
       3.099999  -2.259791E+01  -9.465789E+02
       3.109999  -3.084462E+01  -1.292017E+03
       3.119999  -4.357660E+01  -1.825332E+03
       3.129999  -6.472445E+01  -2.711171E+03
       3.139999  -5.498815E+01  -2.303338E+03
       3.149999  -1.554546E+01  -6.511667E+02
       3.159999   7.918663E+00   3.316962E+02
       3.169999   1.394222E+01   5.840104E+02
       3.179999   1.184263E+01   4.960627E+02
       3.189998   7.497537E+00   3.140561E+02
       3.199998   3.950057E+00   1.654596E+02
       3.209998   1.489862E+00   6.240719E+01
       3.219998  -1.448216E-02  -6.066274E-01
       3.229998  -4.550238E-01  -1.905999E+01
       3.239998  -8.419507E-01  -3.526755E+01
       3.249998  -1.764941E+00  -7.392968E+01
       3.259998  -3.315193E+00  -1.388665E+02
       3.269998  -6.258005E+00  -2.621347E+02
       3.279998  -9.990971E+00  -4.185008E+02
       3.289998  -9.282110E+00  -3.888081E+02
       3.299998   3.052078E+00   1.278451E+02
       3.309998   2.158127E+01   9.039941E+02
       3.319998   2.952649E+01   1.236803E+03
       3.329998   2.973215E+01   1.245417E+03
       3.339998   2.721945E+01   1.140166E+03
       3.349998   1.857619E+01   7.781175E+02
       3.359998   2.145579E+00   8.987381E+01
       3.369998  -8.257986E+00  -3.459097E+02
       3.379998  -1.048073E+01  -4.390160E+02
       3.389998  -9.463979E+00  -3.964262E+02
       3.399998  -6.240724E+00  -2.614108E+02
       3.409998  -2.381294E+00  -9.974741E+01
       3.419998  -1.879711E+00  -7.873716E+01
       3.429998  -4.407822E+00  -1.846344E+02
       3.439998  -6.111769E+00  -2.560092E+02
       3.449998  -6.755396E+00  -2.829694E+02
       3.459998  -7.470627E+00  -3.129289E+02
       3.469998  -8.478856E+00  -3.551615E+02
       3.479998  -9.009950E+00  -3.774079E+02
       3.489998  -8.251222E+00  -3.456264E+02
       3.499998  -7.785569E+00  -3.261212E+02
       3.509998  -8.226832E+00  -3.446047E+02
       3.519998  -9.456791E+00  -3.961251E+02
       3.529998  -1.166664E+01  -4.886909E+02
       3.539998  -1.513637E+01  -6.340308E+02
       3.549998  -1.622125E+01  -6.794743E+02
       3.559998  -1.420034E+01  -5.948225E+02
       3.569998  -1.066762E+01  -4.468443E+02
       3.579998  -3.616506E+00  -1.514878E+02
       3.589998   1.975716E+00   8.275858E+01
       3.599998   3.102563E+00   1.299598E+02
       3.609998   2.271383E+00   9.514345E+01
       3.619998   3.621617E-01   1.517019E+01
       3.629998  -2.055918E+00  -8.611811E+01
       3.639998  -3.647277E+00  -1.527768E+02
       3.649998  -5.549021E+00  -2.324368E+02
       3.659998  -8.227692E+00  -3.446407E+02
       3.669998  -8.065787E+00  -3.378589E+02
       3.679998  -5.334442E+00  -2.234486E+02
       3.689998  -3.674620E+00  -1.539221E+02
       3.699998  -3.269664E+00  -1.369594E+02
       3.709998  -2.897461E+00  -1.213686E+02
       3.719998  -2.723010E+00  -1.140612E+02
       3.729998  -3.214384E+00  -1.346438E+02
       3.739998  -4.289936E+00  -1.796964E+02
       3.749998  -5.670359E+00  -2.375194E+02
       3.759998  -7.335559E+00  -3.072712E+02
       3.769998  -8.578644E+00  -3.593414E+02
       3.779998  -8.921021E+00  -3.736829E+02
       3.789998  -9.424962E+00  -3.947919E+02
       3.799998  -1.274690E+01  -5.339411E+02
       3.809998  -1.830780E+01  -7.668754E+02
       3.819998  -1.905445E+01  -7.981510E+02
       3.829998  -1.639371E+01  -6.866982E+02
       3.839998  -1.534799E+01  -6.428952E+02
       3.849998  -1.429301E+01  -5.987041E+02
       3.859998  -9.785175E+00  -4.098805E+02
       3.869998  -2.119875E+00  -8.879711E+01
       3.879998   2.639413E+00   1.105595E+02
       3.889998   3.921535E+00   1.642649E+02
       3.899998   5.165462E+00   2.163704E+02
       3.909998   6.638734E+00   2.780826E+02
       3.919998   5.937086E+00   2.486921E+02
       3.929998   3.471945E+00   1.454325E+02
       3.939998   3.059073E-01   1.281381E+01
       3.949998  -1.460263E+00  -6.116734E+01
       3.959998  -2.412705E+00  -1.010631E+02
       3.969998  -3.350841E+00  -1.403597E+02
       3.979998  -3.702074E+00  -1.550721E+02
       3.989998  -4.012375E+00  -1.680700E+02
       3.999998  -3.805321E+00  -1.593969E+02
       4.009998  -3.390831E+00  -1.420348E+02
       4.019998  -2.518704E+00  -1.055032E+02
       4.029998  -2.028845E+00  -8.498408E+01
       4.039998  -3.616123E+00  -1.514718E+02
       4.049998  -6.658459E+00  -2.789089E+02
       4.059998  -8.189371E+00  -3.430356E+02
       4.069998  -7.237826E+00  -3.031773E+02
       4.079998  -2.456632E+00  -1.029032E+02
       4.089998   3.472732E+00   1.454655E+02
       4.099998   6.274380E+00   2.628206E+02
       4.109998   7.164587E+00   3.001095E+02
       4.119998   9.293981E+00   3.893054E+02
       4.129998   1.118741E+01   4.686173E+02
       4.139998   1.083564E+01   4.538821E+02
       4.149998   9.597676E+00   4.020265E+02
       4.159998   8.721444E+00   3.653230E+02
       4.169998   7.649248E+00   3.204109E+02
       4.179998   4.391988E+00   1.839712E+02
       4.189998  -3.645720E-01  -1.527116E+01
       4.199998  -3.776668E+00  -1.581967E+02
       4.209998  -5.221005E+00  -2.186969E+02
       4.219998  -5.018961E+00  -2.102337E+02
       4.229998  -3.026022E+00  -1.267537E+02
       4.239998  -1.035234E+00  -4.336379E+01
       4.249998  -3.493957E-01  -1.463545E+01
       4.259998   3.072590E-01   1.287043E+01
       4.269998   1.467970E+00   6.149017E+01
       4.279998   2.221642E+00   9.305990E+01
