 #calculated the component:  1  2  2
 #tolerance:    7.349862E-04
 #broadening:    7.349862E-04Ha
 #scissors shift:    0.000000E+00Ha
 #energy window:    4.905642E+01eV    1.802790E+00Ha
 # Energy      Tot-Im Chi(-2w,w,w)  Tot-Im Chi(-2w,w,w)
 # eV          *10^-7 esu        *10^-12 m/V SI units 
 # 
       0.010000  -2.489563E-02  -1.042826E+00
       0.020000  -2.546703E-02  -1.066761E+00
       0.030000  -2.605631E-02  -1.091444E+00
       0.040000  -2.666418E-02  -1.116907E+00
       0.050000  -2.729138E-02  -1.143179E+00
       0.060000  -2.793871E-02  -1.170294E+00
       0.070000  -2.860697E-02  -1.198286E+00
       0.080000  -2.929703E-02  -1.227191E+00
       0.090000  -3.000980E-02  -1.257048E+00
       0.100000  -3.074623E-02  -1.287895E+00
       0.110000  -3.150732E-02  -1.319776E+00
       0.120000  -3.229413E-02  -1.352733E+00
       0.130000  -3.310775E-02  -1.386814E+00
       0.140000  -3.394935E-02  -1.422067E+00
       0.150000  -3.482017E-02  -1.458544E+00
       0.160000  -3.572150E-02  -1.496299E+00
       0.170000  -3.665469E-02  -1.535388E+00
       0.180000  -3.762119E-02  -1.575873E+00
       0.190000  -3.862251E-02  -1.617816E+00
       0.200000  -3.966027E-02  -1.661285E+00
       0.210000  -4.073614E-02  -1.706351E+00
       0.220000  -4.185192E-02  -1.753089E+00
       0.230000  -4.300950E-02  -1.801578E+00
       0.240000  -4.421089E-02  -1.851901E+00
       0.250000  -4.545820E-02  -1.904148E+00
       0.260000  -4.675367E-02  -1.958413E+00
       0.270000  -4.809970E-02  -2.014795E+00
       0.280000  -4.949880E-02  -2.073401E+00
       0.290000  -5.095365E-02  -2.134341E+00
       0.300000  -5.246710E-02  -2.197737E+00
       0.310000  -5.404217E-02  -2.263713E+00
       0.320000  -5.568208E-02  -2.332405E+00
       0.330000  -5.739024E-02  -2.403957E+00
       0.340000  -5.917031E-02  -2.478520E+00
       0.350000  -6.102616E-02  -2.556258E+00
       0.360000  -6.296194E-02  -2.637343E+00
       0.370000  -6.498205E-02  -2.721962E+00
       0.380000  -6.709122E-02  -2.810310E+00
       0.390000  -6.929449E-02  -2.902601E+00
       0.400000  -7.159725E-02  -2.999058E+00
       0.410000  -7.400527E-02  -3.099925E+00
       0.420000  -7.652474E-02  -3.205461E+00
       0.430000  -7.916229E-02  -3.315942E+00
       0.440000  -8.192504E-02  -3.431668E+00
       0.450000  -8.482062E-02  -3.552958E+00
       0.460000  -8.785726E-02  -3.680156E+00
       0.470000  -9.104379E-02  -3.813633E+00
       0.480000  -9.438975E-02  -3.953789E+00
       0.490000  -9.790539E-02  -4.101051E+00
       0.500000  -1.016018E-01  -4.255886E+00
       0.510000  -1.054909E-01  -4.418794E+00
       0.520000  -1.095857E-01  -4.590317E+00
       0.530000  -1.139002E-01  -4.771042E+00
       0.540000  -1.184496E-01  -4.961604E+00
       0.550000  -1.232502E-01  -5.162694E+00
       0.560000  -1.283201E-01  -5.375059E+00
       0.570000  -1.336786E-01  -5.599514E+00
       0.580000  -1.393468E-01  -5.836945E+00
       0.590000  -1.453478E-01  -6.088316E+00
       0.600000  -1.517068E-01  -6.354679E+00
       0.610000  -1.584511E-01  -6.637185E+00
       0.620000  -1.656108E-01  -6.937088E+00
       0.630000  -1.732186E-01  -7.255763E+00
       0.640000  -1.813105E-01  -7.594715E+00
       0.650000  -1.899259E-01  -7.955596E+00
       0.660000  -1.991080E-01  -8.340216E+00
       0.670000  -2.089043E-01  -8.750564E+00
       0.680000  -2.193671E-01  -9.188829E+00
       0.690000  -2.305538E-01  -9.657414E+00
       0.700000  -2.425274E-01  -1.015897E+01
       0.710000  -2.553576E-01  -1.069639E+01
       0.720000  -2.691206E-01  -1.127290E+01
       0.730000  -2.839004E-01  -1.189199E+01
       0.740000  -2.997890E-01  -1.255753E+01
       0.750000  -3.168870E-01  -1.327373E+01
       0.760000  -3.353038E-01  -1.404517E+01
       0.770000  -3.551579E-01  -1.487682E+01
       0.780000  -3.765759E-01  -1.577398E+01
       0.790000  -3.996913E-01  -1.674223E+01
       0.800000  -4.246411E-01  -1.778732E+01
       0.810000  -4.515606E-01  -1.891493E+01
       0.820000  -4.805731E-01  -2.013020E+01
       0.830000  -5.117736E-01  -2.143712E+01
       0.840000  -5.451998E-01  -2.283728E+01
       0.850000  -5.807846E-01  -2.432785E+01
       0.860000  -6.182733E-01  -2.589817E+01
       0.870000  -6.570806E-01  -2.752373E+01
       0.880000  -6.960358E-01  -2.915548E+01
       0.890000  -7.329167E-01  -3.070034E+01
       0.900000  -7.635661E-01  -3.198418E+01
       0.910000  -7.801478E-01  -3.267875E+01
       0.920000  -7.675485E-01  -3.215100E+01
       0.930000  -6.956475E-01  -2.913921E+01
       0.940000  -5.025632E-01  -2.105132E+01
       0.950000  -6.319071E-02  -2.646926E+00
       0.960000   8.137494E-01   3.408626E+01
       0.970000   1.954022E+00   8.184990E+01
       0.980000   1.800454E+00   7.541725E+01
       0.990000   7.553493E-02   3.164000E+00
       1.000000  -1.574750E+00  -6.596298E+01
       1.010000  -2.824887E+00  -1.183286E+02
       1.020000  -3.878715E+00  -1.624712E+02
       1.030000  -4.877067E+00  -2.042901E+02
       1.040000  -5.901330E+00  -2.471943E+02
       1.050000  -7.392482E+00  -3.096555E+02
       1.060000  -1.098045E+01  -4.599481E+02
       1.069999  -1.763260E+01  -7.385928E+02
       1.079999  -2.782034E+01  -1.165336E+03
       1.089999  -4.451335E+01  -1.864571E+03
       1.099999  -7.181015E+01  -3.007976E+03
       1.109999  -1.018136E+02  -4.264758E+03
       1.119999  -1.061951E+02  -4.448289E+03
       1.129999  -1.010842E+02  -4.234205E+03
       1.139999  -1.045364E+02  -4.378810E+03
       1.149999  -8.682939E+01  -3.637101E+03
       1.159999  -5.607462E+01  -2.348848E+03
       1.169999  -3.413994E+01  -1.430050E+03
       1.179999  -2.062482E+01  -8.639304E+02
       1.189999  -1.199111E+01  -5.022825E+02
       1.199999  -7.688685E+00  -3.220629E+02
       1.209999  -6.260500E+00  -2.622392E+02
       1.219999  -5.420916E+00  -2.270708E+02
       1.229999  -4.649863E+00  -1.947730E+02
       1.239999  -3.968117E+00  -1.662161E+02
       1.249999  -3.404663E+00  -1.426142E+02
       1.259999  -2.969721E+00  -1.243954E+02
       1.269999  -2.678761E+00  -1.122077E+02
       1.279999  -2.576065E+00  -1.079060E+02
       1.289999  -2.750257E+00  -1.152025E+02
       1.299999  -3.199301E+00  -1.340120E+02
       1.309999  -3.247794E+00  -1.360433E+02
       1.319999  -2.361017E+00  -9.889805E+01
       1.329999  -1.397241E+00  -5.852751E+01
       1.339999  -7.066125E-01  -2.959851E+01
       1.349999  -1.884524E-01  -7.893876E+00
       1.359999   2.708166E-01   1.134394E+01
       1.369999   7.284625E-01   3.051377E+01
       1.379999   8.746532E-01   3.663739E+01
       1.389999  -9.639812E-01  -4.037915E+01
       1.399999  -5.289811E+00  -2.215791E+02
       1.409999  -7.199873E+00  -3.015876E+02
       1.419999  -2.103458E+00  -8.810944E+01
       1.429999   6.352928E+00   2.661108E+02
       1.439999   1.812649E+01   7.592806E+02
       1.449999   3.751971E+01   1.571622E+03
       1.459999   5.757990E+01   2.411901E+03
       1.469999   5.594340E+01   2.343352E+03
       1.479999   4.078665E+01   1.708467E+03
       1.489999   3.164401E+01   1.325501E+03
       1.499999   3.061244E+01   1.282291E+03
       1.509999   3.725740E+01   1.560634E+03
       1.519999   5.135829E+01   2.151291E+03
       1.529999   5.890939E+01   2.467591E+03
       1.539999   4.370780E+01   1.830828E+03
       1.549999   2.691979E+01   1.127614E+03
       1.559999   2.000067E+01   8.377863E+02
       1.569999   1.567377E+01   6.565414E+02
       1.579999   9.057544E+00   3.794015E+02
       1.589999   3.244830E+00   1.359191E+02
       1.599999  -1.936771E+00  -8.112729E+01
       1.609999  -8.446631E+00  -3.538116E+02
       1.619999  -1.742563E+01  -7.299230E+02
       1.629999  -2.523604E+01  -1.057085E+03
       1.639999  -2.672451E+01  -1.119434E+03
       1.649999  -2.226066E+01  -9.324525E+02
       1.659999  -1.361936E+01  -5.704863E+02
       1.669999  -5.631286E+00  -2.358828E+02
       1.679999   2.207389E+00   9.246290E+01
       1.689999   1.089631E+01   4.564237E+02
       1.699999   1.844866E+01   7.727757E+02
       1.709999   2.024760E+01   8.481293E+02
       1.719999   1.842464E+01   7.717694E+02
       1.729999   1.560732E+01   6.537580E+02
       1.739999   1.461647E+01   6.122535E+02
       1.749999   1.365452E+01   5.719590E+02
       1.759999   1.117361E+01   4.680392E+02
       1.769999   9.747040E+00   4.082831E+02
       1.779999   9.033026E+00   3.783745E+02
       1.789999   7.509126E+00   3.145415E+02
       1.799999   5.207292E+00   2.181225E+02
       1.809999   3.204144E+00   1.342149E+02
       1.819999   1.700499E+00   7.123035E+01
       1.829999   2.020697E-01   8.464274E+00
       1.839999  -1.407435E+00  -5.895449E+01
       1.849999  -2.799386E+00  -1.172604E+02
       1.859999  -2.850057E+00  -1.193829E+02
       1.869999  -1.037782E+00  -4.347051E+01
       1.879999   9.905294E-01   4.149120E+01
       1.889999   1.224054E+00   5.127304E+01
       1.899999   2.784210E+00   1.166247E+02
       1.909999   8.488892E+00   3.555819E+02
       1.919999   1.002333E+01   4.198563E+02
       1.929999   7.348610E+00   3.078178E+02
       1.939999   4.986398E+00   2.088697E+02
       1.949999   4.006666E+00   1.678308E+02
       1.959999   3.771814E+00   1.579934E+02
       1.969999   2.963928E+00   1.241527E+02
       1.979999   9.880517E-01   4.138741E+01
       1.989999  -2.553825E+00  -1.069744E+02
       1.999999  -7.745284E+00  -3.244337E+02
       2.009999  -1.347929E+01  -5.646191E+02
       2.019999  -1.362957E+01  -5.709142E+02
       2.029999  -8.628948E+00  -3.614485E+02
       2.039999  -3.910393E+00  -1.637982E+02
       2.049999  -4.311127E-01  -1.805841E+01
       2.059999   1.321947E+00   5.537359E+01
       2.069999   2.813892E+00   1.178680E+02
       2.079999   5.015716E+00   2.100978E+02
       2.089999   8.152941E+00   3.415096E+02
       2.099999   1.098623E+01   4.601902E+02
       2.109999   1.280378E+01   5.363236E+02
       2.119999   1.170829E+01   4.904356E+02
       2.129999   7.004527E+00   2.934049E+02
       2.139999   2.496771E+00   1.045845E+02
       2.149999  -8.627006E-01  -3.613672E+01
       2.159999  -3.233928E+00  -1.354624E+02
       2.169999  -1.382040E+00  -5.789074E+01
       2.179999   9.642559E+00   4.039066E+02
       2.189999   2.051539E+01   8.593466E+02
       2.199999   2.103015E+01   8.809088E+02
       2.209999   1.504374E+01   6.301509E+02
       2.219999   9.271410E+00   3.883599E+02
       2.229999   5.416483E+00   2.268851E+02
       2.239999   1.520748E+00   6.370095E+01
       2.249999  -3.465512E+00  -1.451630E+02
       2.259999  -8.019649E+00  -3.359263E+02
       2.269999  -8.743751E+00  -3.662574E+02
       2.279999  -4.139522E+00  -1.733959E+02
       2.289999   5.924584E-01   2.481684E+01
       2.299999   5.396409E+00   2.260442E+02
       2.309999   9.371484E+00   3.925518E+02
       2.319999   1.060815E+01   4.443532E+02
       2.329999   1.067853E+01   4.473012E+02
       2.339999   1.214423E+01   5.086964E+02
       2.349999   1.472247E+01   6.166933E+02
       2.359999   1.599511E+01   6.700017E+02
       2.369999   1.666970E+01   6.982587E+02
       2.379999   1.641804E+01   6.877171E+02
       2.389999   1.309691E+01   5.486023E+02
       2.399999   9.490332E+00   3.975301E+02
       2.409999   8.302143E+00   3.477594E+02
       2.419999   9.449856E+00   3.958347E+02
       2.429999   1.277471E+01   5.351060E+02
       2.439999   1.904642E+01   7.978147E+02
       2.449999   2.594261E+01   1.086681E+03
       2.459999   2.483414E+01   1.040250E+03
       2.469999   1.685475E+01   7.060100E+02
       2.479999   1.023104E+01   4.285568E+02
       2.489999   6.556165E+00   2.746240E+02
       2.499999   6.728687E+00   2.818506E+02
       2.509999   9.743124E+00   4.081190E+02
       2.519999   1.261914E+01   5.285895E+02
       2.529999   1.288080E+01   5.395496E+02
       2.539999   1.166022E+01   4.884223E+02
       2.549999   1.081782E+01   4.531359E+02
       2.559999   1.118751E+01   4.686214E+02
       2.569999   1.301841E+01   5.453137E+02
       2.579999   1.656062E+01   6.936895E+02
       2.589999   2.256500E+01   9.452004E+02
       2.599999   3.097198E+01   1.297351E+03
       2.609999   3.831297E+01   1.604850E+03
       2.619999   4.221075E+01   1.768120E+03
       2.629999   3.952309E+01   1.655540E+03
       2.639999   3.144405E+01   1.317125E+03
       2.649999   2.368573E+01   9.921456E+02
       2.659999   2.050042E+01   8.587196E+02
       2.669999   2.175601E+01   9.113135E+02
       2.679999   2.453120E+01   1.027560E+03
       2.689999   2.488789E+01   1.042502E+03
       2.699999   2.134005E+01   8.938901E+02
       2.709999   1.862204E+01   7.800382E+02
       2.719999   2.178145E+01   9.123792E+02
       2.729999   3.174226E+01   1.329617E+03
       2.739999   4.523258E+01   1.894698E+03
       2.749999   4.535937E+01   1.900009E+03
       2.759999   2.987715E+01   1.251491E+03
       2.769999   1.576523E+01   6.603723E+02
       2.779999   7.505342E+00   3.143830E+02
       2.789999   2.479913E+00   1.038783E+02
       2.799999  -6.177374E+00  -2.587572E+02
       2.809999  -1.836477E+01  -7.692616E+02
       2.819999  -2.796953E+01  -1.171585E+03
       2.829999  -2.544014E+01  -1.065634E+03
       2.839999  -1.783338E+01  -7.470028E+02
       2.849999  -1.387803E+01  -5.813217E+02
       2.859999  -1.459461E+01  -6.113377E+02
       2.869999  -2.020288E+01  -8.462563E+02
       2.879999  -2.682259E+01  -1.123542E+03
       2.889999  -2.524402E+01  -1.057419E+03
       2.899999  -2.219158E+01  -9.295589E+02
       2.909999  -2.187450E+01  -9.162770E+02
       2.919999  -2.144566E+01  -8.983138E+02
       2.929999  -1.786300E+01  -7.482434E+02
       2.939999  -1.008098E+01  -4.222710E+02
       2.949999  -3.766224E+00  -1.577592E+02
       2.959999  -1.720596E+00  -7.207216E+01
       2.969999  -1.734990E+00  -7.267510E+01
       2.979999  -2.402498E+00  -1.006356E+02
       2.989999  -2.681103E+00  -1.123058E+02
       2.999999  -1.602439E+00  -6.712281E+01
       3.009999   4.346839E-01   1.820800E+01
       3.019999   2.561438E+00   1.072933E+02
       3.029999   3.372565E+00   1.412697E+02
       3.039999   2.246830E+00   9.411501E+01
       3.049999   7.611038E-01   3.188104E+01
       3.059999   2.205989E+00   9.240424E+01
       3.069999   9.905403E+00   4.149165E+02
       3.079999   1.949441E+01   8.165801E+02
       3.089999   2.534264E+01   1.061550E+03
       3.099999   2.328311E+01   9.752807E+02
       3.109999   1.929323E+01   8.081531E+02
       3.119999   1.644733E+01   6.889441E+02
       3.129999  -3.955339E+00  -1.656809E+02
       3.139999  -4.682408E+01  -1.961362E+03
       3.149999  -5.786705E+01  -2.423929E+03
       3.159999  -4.229809E+01  -1.771778E+03
       3.169999  -2.529919E+01  -1.059730E+03
       3.179999  -1.403554E+01  -5.879192E+02
       3.189998  -8.412041E+00  -3.523628E+02
       3.199998  -6.293102E+00  -2.636049E+02
       3.209998  -5.655605E+00  -2.369014E+02
       3.219998  -5.875876E+00  -2.461281E+02
       3.229998  -6.088319E+00  -2.550269E+02
       3.239998  -5.661593E+00  -2.371523E+02
       3.249998  -5.245328E+00  -2.197158E+02
       3.259998  -5.055056E+00  -2.117457E+02
       3.269998  -5.908018E+00  -2.474745E+02
       3.279998  -1.066561E+01  -4.467599E+02
       3.289998  -2.102663E+01  -8.807612E+02
       3.299998  -3.107975E+01  -1.301866E+03
       3.309998  -2.640558E+01  -1.106074E+03
       3.319998  -1.204887E+01  -5.047019E+02
       3.329998   3.419511E-01   1.432361E+01
       3.339998   1.171288E+01   4.906278E+02
       3.349998   2.361954E+01   9.893730E+02
       3.359998   2.658898E+01   1.113757E+03
       3.369998   1.840927E+01   7.711259E+02
       3.379998   1.036127E+01   4.340118E+02
       3.389998   4.772773E+00   1.999215E+02
       3.399998   1.386764E+00   5.808862E+01
       3.409998   2.025648E+00   8.485014E+01
       3.419998   5.234579E+00   2.192655E+02
       3.429998   6.565407E+00   2.750111E+02
       3.439998   5.610322E+00   2.350046E+02
       3.449998   4.890802E+00   2.048654E+02
       3.459998   4.449585E+00   1.863838E+02
       3.469998   3.757512E+00   1.573943E+02
       3.479998   2.241506E+00   9.389198E+01
       3.489998   1.259337E+00   5.275097E+01
       3.499998   1.562546E+00   6.545176E+01
       3.509998   2.171196E+00   9.094685E+01
       3.519998   2.571923E+00   1.077324E+02
       3.529998   2.604740E+00   1.091071E+02
       3.539998   4.050115E-01   1.696508E+01
       3.549998  -4.833878E+00  -2.024810E+02
       3.559998  -9.331017E+00  -3.908567E+02
       3.569998  -1.332384E+01  -5.581078E+02
       3.579998  -1.485698E+01  -6.223278E+02
       3.589998  -1.062144E+01  -4.449099E+02
       3.599998  -5.661283E+00  -2.371393E+02
       3.609998  -2.054798E+00  -8.607116E+01
       3.619998   4.736889E-01   1.984184E+01
       3.629998   1.386100E+00   5.806082E+01
       3.639998   1.415089E+00   5.927510E+01
       3.649998   1.696233E+00   7.105166E+01
       3.659998  -3.181680E-02  -1.332739E+00
       3.669998  -3.621137E+00  -1.516819E+02
       3.679998  -4.897507E+00  -2.051463E+02
       3.689998  -3.893875E+00  -1.631062E+02
       3.699998  -2.962041E+00  -1.240737E+02
       3.709998  -2.248773E+00  -9.419637E+01
       3.719998  -1.105967E+00  -4.632665E+01
       3.729998   1.727554E-01   7.236359E+00
       3.739998   1.145135E+00   4.796729E+01
       3.749998   1.706880E+00   7.149764E+01
       3.759998   1.690294E+00   7.080285E+01
       3.769998   8.870448E-01   3.715644E+01
       3.779998   3.355260E-01   1.405448E+01
       3.789998   1.179286E+00   4.939781E+01
       3.799998   2.557029E+00   1.071086E+02
       3.809998  -5.570879E-01  -2.333524E+01
       3.819998  -7.368884E+00  -3.086671E+02
       3.829998  -1.092973E+01  -4.578236E+02
       3.839998  -1.299211E+01  -5.442123E+02
       3.849998  -1.690193E+01  -7.079862E+02
       3.859998  -2.153406E+01  -9.020166E+02
       3.869998  -2.195232E+01  -9.195368E+02
       3.879998  -1.785019E+01  -7.477070E+02
       3.889998  -1.438087E+01  -6.023844E+02
       3.899998  -1.232994E+01  -5.164753E+02
       3.909998  -9.020140E+00  -3.778347E+02
       3.919998  -5.083268E+00  -2.129274E+02
       3.929998  -2.326439E+00  -9.744963E+01
       3.939998  -1.698264E+00  -7.113672E+01
       3.949998  -2.632672E+00  -1.102771E+02
       3.959998  -3.111287E+00  -1.303253E+02
       3.969998  -3.949705E+00  -1.654449E+02
       3.979998  -4.763474E+00  -1.995319E+02
       3.989998  -5.592994E+00  -2.342788E+02
       3.999998  -6.493520E+00  -2.719999E+02
       4.009998  -7.065067E+00  -2.959408E+02
       4.019998  -7.298041E+00  -3.056996E+02
       4.029998  -6.182616E+00  -2.589768E+02
       4.039998  -4.902995E+00  -2.053762E+02
       4.049998  -6.017566E+00  -2.520632E+02
       4.059998  -9.738300E+00  -4.079169E+02
       4.069998  -1.448369E+01  -6.066914E+02
       4.079998  -1.832467E+01  -7.675822E+02
       4.089998  -1.751079E+01  -7.334903E+02
       4.099998  -1.435230E+01  -6.011877E+02
       4.109998  -1.259716E+01  -5.276686E+02
       4.119998  -1.136652E+01  -4.761196E+02
       4.129998  -8.043146E+00  -3.369105E+02
       4.139998  -4.443589E+00  -1.861326E+02
       4.149998  -2.138855E+00  -8.959214E+01
       4.159998  -3.141002E-01  -1.315700E+01
       4.169998   2.269861E+00   9.507970E+01
       4.179998   5.022480E+00   2.103811E+02
       4.189998   5.009625E+00   2.098427E+02
       4.199998   2.512735E+00   1.052532E+02
       4.209998  -7.476612E-01  -3.131796E+01
       4.219998  -3.966401E+00  -1.661442E+02
       4.229998  -6.199610E+00  -2.596887E+02
       4.239998  -6.230134E+00  -2.609672E+02
       4.249998  -5.945986E+00  -2.490649E+02
       4.259998  -6.135025E+00  -2.569833E+02
       4.269998  -5.976883E+00  -2.503591E+02
       4.279998  -4.968004E+00  -2.080993E+02
