 #calculated the component:  1  1  of dielectric function
 #broadening:    0.000000E+00    7.349862E-04
 #scissors shift:    0.000000E+00
 #energy window:    4.776924E+01eV    1.755487E+00Ha
 
 # Energy(eV)         Im(eps(w))
    4.999998E-02    5.933719E-04
    9.999995E-02    1.188965E-03
    1.499999E-01    1.789029E-03
    1.999999E-01    2.395865E-03
    2.499999E-01    3.011860E-03
    2.999999E-01    3.639514E-03
    3.499998E-01    4.281476E-03
    3.999998E-01    4.940584E-03
    4.499998E-01    5.619907E-03
    4.999998E-01    6.322795E-03
    5.499997E-01    7.052944E-03
    5.999997E-01    7.814464E-03
    6.499997E-01    8.611968E-03
    6.999997E-01    9.450678E-03
    7.499996E-01    1.033656E-02
    7.999996E-01    1.127647E-02
    8.499996E-01    1.227838E-02
    8.999996E-01    1.335166E-02
    9.499996E-01    1.450736E-02
    9.999995E-01    1.575871E-02
    1.050000E+00    1.712169E-02
    1.099999E+00    1.861586E-02
    1.149999E+00    2.026542E-02
    1.199999E+00    2.210079E-02
    1.249999E+00    2.416081E-02
    1.299999E+00    2.649600E-02
    1.349999E+00    2.917348E-02
    1.399999E+00    3.228468E-02
    1.449999E+00    3.595792E-02
    1.499999E+00    4.037992E-02
    1.549999E+00    4.583513E-02
    1.599999E+00    5.278309E-02
    1.649999E+00    6.202794E-02
    1.699999E+00    7.514634E-02
    1.749999E+00    9.582026E-02
    1.799999E+00    1.356245E-01
    1.849999E+00    2.600847E-01
    1.899999E+00    1.144269E+00
    1.949999E+00    6.697198E-01
    1.999999E+00    1.653448E+00
    2.049999E+00    1.072210E+00
    2.099999E+00    2.395834E+00
    2.149999E+00    6.505391E+00
    2.199999E+00    2.597408E+00
    2.249999E+00    3.844205E+00
    2.299999E+00    1.053758E+00
    2.349999E+00    7.007442E-01
    2.399999E+00    2.191874E+00
    2.449999E+00    6.727514E-01
    2.499999E+00    7.684546E-01
    2.549999E+00    2.042231E+00
    2.599999E+00    7.244168E+00
    2.649999E+00    1.934008E+00
    2.699999E+00    5.185330E+00
    2.749999E+00    6.527869E+00
    2.799999E+00    8.287605E+00
    2.849999E+00    7.462732E+00
    2.899999E+00    3.124908E+00
    2.949999E+00    3.632550E+00
    2.999999E+00    4.854330E+00
    3.049999E+00    2.805008E+00
    3.099999E+00    6.182532E+00
    3.149999E+00    6.321484E+00
    3.199998E+00    3.833933E+00
    3.249998E+00    5.056565E+00
    3.299998E+00    4.696442E+00
    3.349998E+00    2.002103E+00
    3.399998E+00    2.213606E+00
    3.449998E+00    2.292107E+00
    3.499998E+00    3.845540E+00
    3.549998E+00    4.234543E+00
    3.599998E+00    8.264450E+00
    3.649998E+00    5.787603E+00
    3.699998E+00    5.796475E+00
    3.749998E+00    4.728373E+00
    3.799998E+00    9.244360E+00
    3.849998E+00    7.166731E+00
    3.899998E+00    5.524242E+00
    3.949998E+00    3.548952E+00
    3.999998E+00    3.223039E+00
    4.049998E+00    5.402937E+00
    4.099998E+00    3.750349E+00
    4.149998E+00    9.429476E+00
    4.199998E+00    8.441556E+00
    4.249998E+00    7.680000E+00
    4.299998E+00    8.644482E+00
    4.349998E+00    9.212014E+00
    4.399998E+00    6.504650E+00
    4.449998E+00    3.354847E+00
    4.499998E+00    1.571903E+00
    4.549998E+00    2.415526E+00
    4.599998E+00    3.143326E+00
    4.649998E+00    2.506564E+00
    4.699998E+00    4.023367E+00
    4.749998E+00    5.315084E+00
    4.799998E+00    4.880176E+00
    4.849998E+00    5.933710E+00
    4.899998E+00    3.708944E+00
    4.949998E+00    6.231887E+00
    4.999998E+00    7.194704E+00
    5.049998E+00    4.659213E+00
    5.099998E+00    3.811046E+00
    5.149998E+00    5.615123E+00
    5.199998E+00    3.426000E+00
    5.249998E+00    2.329840E+00
    5.299998E+00    3.824066E+00
    5.349997E+00    2.463437E+00
    5.399997E+00    1.666851E+00
    5.449997E+00    3.415623E+00
    5.499997E+00    3.819716E+00
    5.549997E+00    2.397570E+00
    5.599997E+00    3.216806E+00
    5.649997E+00    3.467355E+00
    5.699997E+00    3.984217E+00
    5.749997E+00    4.713296E+00
    5.799997E+00    2.052983E+00
    5.849997E+00    3.054039E+00
    5.899997E+00    3.199447E+00
    5.949997E+00    2.185514E+00
 
 
 # Energy(eV)         Re(eps(w))
    4.999998E-02    4.640234E+00
    9.999995E-02    4.642461E+00
    1.499999E-01    4.646182E+00
    1.999999E-01    4.651410E+00
    2.499999E-01    4.658166E+00
    2.999999E-01    4.666476E+00
    3.499998E-01    4.676372E+00
    3.999998E-01    4.687893E+00
    4.499998E-01    4.701086E+00
    4.999998E-01    4.716006E+00
    5.499997E-01    4.732716E+00
    5.999997E-01    4.751288E+00
    6.499997E-01    4.771808E+00
    6.999997E-01    4.794371E+00
    7.499996E-01    4.819088E+00
    7.999996E-01    4.846085E+00
    8.499996E-01    4.875506E+00
    8.999996E-01    4.907517E+00
    9.499996E-01    4.942311E+00
    9.999995E-01    4.980108E+00
    1.050000E+00    5.021167E+00
    1.099999E+00    5.065790E+00
    1.149999E+00    5.114334E+00
    1.199999E+00    5.167222E+00
    1.249999E+00    5.224965E+00
    1.299999E+00    5.288182E+00
    1.349999E+00    5.357638E+00
    1.399999E+00    5.434293E+00
    1.449999E+00    5.519376E+00
    1.499999E+00    5.614502E+00
    1.549999E+00    5.721853E+00
    1.599999E+00    5.844506E+00
    1.649999E+00    5.987033E+00
    1.699999E+00    6.156745E+00
    1.749999E+00    6.366724E+00
    1.799999E+00    6.645006E+00
    1.849999E+00    7.072067E+00
    1.899999E+00    7.215249E+00
    1.949999E+00    7.553818E+00
    1.999999E+00    6.935454E+00
    2.049999E+00    8.313890E+00
    2.099999E+00    9.229375E+00
    2.149999E+00    5.181418E+00
    2.199999E+00    6.355074E+00
    2.249999E+00    3.259361E+00
    2.299999E+00    4.199122E+00
    2.349999E+00    5.884665E+00
    2.399999E+00    6.229107E+00
    2.449999E+00    6.532591E+00
    2.499999E+00    8.058180E+00
    2.549999E+00    9.884046E+00
    2.599999E+00    5.891599E+00
    2.649999E+00    7.686439E+00
    2.699999E+00    1.189796E+01
    2.749999E+00    6.380928E+00
    2.799999E+00    7.286357E+00
    2.849999E+00    2.325400E+00
    2.899999E+00    1.346639E+00
    2.949999E+00    5.733520E+00
    2.999999E+00    3.725226E+00
    3.049999E+00    5.135369E+00
    3.099999E+00    5.771619E+00
    3.149999E+00    4.222981E+00
    3.199998E+00    3.521331E+00
    3.249998E+00    3.493106E+00
    3.299998E+00    2.498477E+00
    3.349998E+00    1.980434E+00
    3.399998E+00    5.217485E+00
    3.449998E+00    4.651287E+00
    3.499998E+00    7.794341E+00
    3.549998E+00    7.048514E+00
    3.599998E+00    4.235905E+00
    3.649998E+00    2.485444E+00
    3.699998E+00    2.924245E+00
    3.749998E+00    4.827408E+00
    3.799998E+00    5.156198E+00
    3.849998E+00    1.519190E+00
    3.899998E+00   -2.482037E-01
    3.949998E+00    2.104706E+00
    3.999998E+00    2.631968E+00
    4.049998E+00    1.877017E+00
    4.099998E+00    6.086135E+00
    4.149998E+00    1.432814E+00
    4.199998E+00    4.422333E+00
    4.249998E+00    2.107282E+00
    4.299998E+00   -1.243438E+00
    4.349998E+00   -2.615016E+00
    4.399998E+00   -1.870697E+00
    4.449998E+00   -3.311995E+00
    4.499998E+00   -1.131519E+00
    4.549998E+00    4.074193E-01
    4.599998E+00    1.561914E+00
    4.649998E+00    1.320333E+00
    4.699998E+00    3.427110E+00
    4.749998E+00    3.011962E+00
    4.799998E+00    1.356386E+00
    4.849998E+00   -4.478866E-01
    4.899998E+00    7.475188E-01
    4.949998E+00    1.502466E+00
    4.999998E+00    2.261641E-01
    5.049998E+00   -2.013023E+00
    5.099998E+00   -1.794934E-01
    5.149998E+00   -7.837342E-01
    5.199998E+00   -2.401012E+00
    5.249998E+00   -8.261257E-01
    5.299998E+00   -3.437983E-01
    5.349997E+00   -1.018336E+00
    5.399997E+00    2.533289E-01
    5.449997E+00    1.197127E+00
    5.499997E+00   -1.263057E+00
    5.549997E+00    1.107657E-01
    5.599997E+00    4.532132E-01
    5.649997E+00    6.337150E-01
    5.699997E+00   -4.051918E-02
    5.749997E+00   -1.611733E+00
    5.799997E+00   -1.481337E+00
    5.849997E+00   -8.127399E-01
    5.899997E+00   -7.861413E-01
    5.949997E+00   -2.120045E+00
 
 
 # Energy(eV)         abs(eps(w))
    4.999998E-02    4.640234E+00
    9.999995E-02    4.642461E+00
    1.499999E-01    4.646182E+00
    1.999999E-01    4.651411E+00
    2.499999E-01    4.658167E+00
    2.999999E-01    4.666477E+00
    3.499998E-01    4.676374E+00
    3.999998E-01    4.687896E+00
    4.499998E-01    4.701089E+00
    4.999998E-01    4.716010E+00
    5.499997E-01    4.732721E+00
    5.999997E-01    4.751295E+00
    6.499997E-01    4.771816E+00
    6.999997E-01    4.794381E+00
    7.499996E-01    4.819099E+00
    7.999996E-01    4.846098E+00
    8.499996E-01    4.875521E+00
    8.999996E-01    4.907535E+00
    9.499996E-01    4.942332E+00
    9.999995E-01    4.980133E+00
    1.050000E+00    5.021196E+00
    1.099999E+00    5.065825E+00
    1.149999E+00    5.114374E+00
    1.199999E+00    5.167270E+00
    1.249999E+00    5.225021E+00
    1.299999E+00    5.288248E+00
    1.349999E+00    5.357717E+00
    1.399999E+00    5.434389E+00
    1.449999E+00    5.519494E+00
    1.499999E+00    5.614647E+00
    1.549999E+00    5.722036E+00
    1.599999E+00    5.844745E+00
    1.649999E+00    5.987354E+00
    1.699999E+00    6.157204E+00
    1.749999E+00    6.367445E+00
    1.799999E+00    6.646389E+00
    1.849999E+00    7.076848E+00
    1.899999E+00    7.305421E+00
    1.949999E+00    7.583449E+00
    1.999999E+00    7.129825E+00
    2.049999E+00    8.382744E+00
    2.099999E+00    9.535271E+00
    2.149999E+00    8.316682E+00
    2.199999E+00    6.865384E+00
    2.249999E+00    5.039975E+00
    2.299999E+00    4.329322E+00
    2.349999E+00    5.926240E+00
    2.399999E+00    6.603490E+00
    2.449999E+00    6.567141E+00
    2.499999E+00    8.094738E+00
    2.549999E+00    1.009282E+01
    2.599999E+00    9.337500E+00
    2.649999E+00    7.926016E+00
    2.699999E+00    1.297880E+01
    2.749999E+00    9.128489E+00
    2.799999E+00    1.103519E+01
    2.849999E+00    7.816640E+00
    2.899999E+00    3.402717E+00
    2.949999E+00    6.787391E+00
    2.999999E+00    6.118973E+00
    3.049999E+00    5.851502E+00
    3.099999E+00    8.457853E+00
    3.149999E+00    7.602284E+00
    3.199998E+00    5.205652E+00
    3.249998E+00    6.145782E+00
    3.299998E+00    5.319676E+00
    3.349998E+00    2.816121E+00
    3.399998E+00    5.667645E+00
    3.449998E+00    5.185386E+00
    3.499998E+00    8.691371E+00
    3.549998E+00    8.222707E+00
    3.599998E+00    9.286766E+00
    3.649998E+00    6.298713E+00
    3.699998E+00    6.492329E+00
    3.749998E+00    6.757320E+00
    3.799998E+00    1.058511E+01
    3.849998E+00    7.325979E+00
    3.899998E+00    5.529815E+00
    3.949998E+00    4.126118E+00
    3.999998E+00    4.161158E+00
    4.049998E+00    5.719696E+00
    4.099998E+00    7.148857E+00
    4.149998E+00    9.537713E+00
    4.199998E+00    9.529790E+00
    4.249998E+00    7.963858E+00
    4.299998E+00    8.733453E+00
    4.349998E+00    9.575986E+00
    4.399998E+00    6.768307E+00
    4.449998E+00    4.714267E+00
    4.499998E+00    1.936805E+00
    4.549998E+00    2.449644E+00
    4.599998E+00    3.509996E+00
    4.649998E+00    2.833044E+00
    4.699998E+00    5.285127E+00
    4.749998E+00    6.109176E+00
    4.799998E+00    5.065165E+00
    4.849998E+00    5.950589E+00
    4.899998E+00    3.783523E+00
    4.949998E+00    6.410446E+00
    4.999998E+00    7.198258E+00
    5.049998E+00    5.075483E+00
    5.099998E+00    3.815270E+00
    5.149998E+00    5.669555E+00
    5.199998E+00    4.183579E+00
    5.249998E+00    2.471971E+00
    5.299998E+00    3.839489E+00
    5.349997E+00    2.665620E+00
    5.399997E+00    1.685992E+00
    5.449997E+00    3.619336E+00
    5.499997E+00    4.023126E+00
    5.549997E+00    2.400127E+00
    5.599997E+00    3.248575E+00
    5.649997E+00    3.524791E+00
    5.699997E+00    3.984423E+00
    5.749997E+00    4.981249E+00
    5.799997E+00    2.531620E+00
    5.849997E+00    3.160333E+00
    5.899997E+00    3.294614E+00
    5.949997E+00    3.044842E+00
 
 
 # Energy(eV)         Im(refractive index(w)) aka kappa
    4.999998E-02    1.377295E-04
    9.999995E-02    2.759085E-04
    1.499999E-01    4.149915E-04
    1.999999E-01    5.554436E-04
    2.499999E-01    6.977458E-04
    2.999999E-01    8.424009E-04
    3.499998E-01    9.899402E-04
    3.999998E-01    1.140931E-03
    4.499998E-01    1.295985E-03
    4.999998E-01    1.455767E-03
    5.499997E-01    1.621008E-03
    5.999997E-01    1.792517E-03
    6.499997E-01    1.971200E-03
    6.999997E-01    2.158077E-03
    7.499996E-01    2.354307E-03
    7.999996E-01    2.561222E-03
    8.499996E-01    2.780360E-03
    8.999996E-01    3.013519E-03
    9.499996E-01    3.262818E-03
    9.999995E-01    3.530780E-03
    1.050000E+00    3.820443E-03
    1.099999E+00    4.135508E-03
    1.149999E+00    4.480539E-03
    1.199999E+00    4.861253E-03
    1.249999E+00    5.284923E-03
    1.299999E+00    5.760972E-03
    1.349999E+00    6.301878E-03
    1.399999E+00    6.924574E-03
    1.449999E+00    7.652745E-03
    1.499999E+00    8.520736E-03
    1.549999E+00    9.580687E-03
    1.599999E+00    1.091658E-02
    1.649999E+00    1.267493E-02
    1.699999E+00    1.514238E-02
    1.749999E+00    1.898703E-02
    1.799999E+00    2.630497E-02
    1.849999E+00    4.889205E-02
    1.899999E+00    2.123342E-01
    1.949999E+00    1.217179E-01
    1.999999E+00    3.117464E-01
    2.049999E+00    1.855455E-01
    2.099999E+00    3.910854E-01
    2.149999E+00    1.252051E+00
    2.199999E+00    5.051286E-01
    2.249999E+00    9.435609E-01
    2.299999E+00    2.551473E-01
    2.349999E+00    1.441793E-01
    2.399999E+00    4.326566E-01
    2.449999E+00    1.314342E-01
    2.499999E+00    1.352003E-01
    2.549999E+00    3.230919E-01
    2.599999E+00    1.312612E+00
    2.649999E+00    3.461048E-01
    2.699999E+00    7.351305E-01
    2.749999E+00    1.172084E+00
    2.799999E+00    1.369093E+00
    2.849999E+00    1.656991E+00
    2.899999E+00    1.013923E+00
    2.949999E+00    7.259031E-01
    2.999999E+00    1.094017E+00
    3.049999E+00    5.983870E-01
    3.099999E+00    1.158929E+00
    3.149999E+00    1.299866E+00
    3.199998E+00    9.176931E-01
    3.249998E+00    1.151668E+00
    3.299998E+00    1.187687E+00
    3.349998E+00    6.464081E-01
    3.399998E+00    4.744260E-01
    3.449998E+00    5.167683E-01
    3.499998E+00    6.697125E-01
    3.549998E+00    7.662221E-01
    3.599998E+00    1.589160E+00
    3.649998E+00    1.380809E+00
    3.699998E+00    1.335680E+00
    3.749998E+00    9.823218E-01
    3.799998E+00    1.647561E+00
    3.849998E+00    1.703935E+00
    3.899998E+00    1.699709E+00
    3.949998E+00    1.005339E+00
    3.999998E+00    8.744112E-01
    4.049998E+00    1.386124E+00
    4.099998E+00    7.289451E-01
    4.149998E+00    2.013070E+00
    4.199998E+00    1.598039E+00
    4.249998E+00    1.711224E+00
    4.299998E+00    2.233483E+00
    4.349998E+00    2.468907E+00
    4.399998E+00    2.078341E+00
    4.449998E+00    2.003280E+00
    4.499998E+00    1.238613E+00
    4.549998E+00    1.010501E+00
    4.599998E+00    9.869351E-01
    4.649998E+00    8.696873E-01
    4.699998E+00    9.638508E-01
    4.749998E+00    1.244431E+00
    4.799998E+00    1.361760E+00
    4.849998E+00    1.788641E+00
    4.899998E+00    1.232072E+00
    4.949998E+00    1.566522E+00
    4.999998E+00    1.867096E+00
    5.049998E+00    1.882619E+00
    5.099998E+00    1.413288E+00
    5.149998E+00    1.796286E+00
    5.199998E+00    1.814468E+00
    5.249998E+00    1.284153E+00
    5.299998E+00    1.446252E+00
    5.349997E+00    1.357195E+00
    5.399997E+00    8.463636E-01
    5.449997E+00    1.100502E+00
    5.499997E+00    1.625759E+00
    5.549997E+00    1.069897E+00
    5.599997E+00    1.182236E+00
    5.649997E+00    1.202305E+00
    5.699997E+00    1.418616E+00
    5.749997E+00    1.815624E+00
    5.799997E+00    1.416502E+00
    5.849997E+00    1.409445E+00
    5.899997E+00    1.428418E+00
    5.949997E+00    1.606998E+00
 
 
 # Energy(eV)         Re(refractive index(w)) aka n
    4.999998E-02    2.154120E+00
    9.999995E-02    2.154637E+00
    1.499999E-01    2.155500E+00
    1.999999E-01    2.156713E+00
    2.499999E-01    2.158279E+00
    2.999999E-01    2.160203E+00
    3.499998E-01    2.162492E+00
    3.999998E-01    2.165155E+00
    4.499998E-01    2.168199E+00
    4.999998E-01    2.171637E+00
    5.499997E-01    2.175481E+00
    5.999997E-01    2.179746E+00
    6.499997E-01    2.184448E+00
    6.999997E-01    2.189606E+00
    7.499996E-01    2.195243E+00
    7.999996E-01    2.201384E+00
    8.499996E-01    2.208056E+00
    8.999996E-01    2.215294E+00
    9.499996E-01    2.223133E+00
    9.999995E-01    2.231618E+00
    1.050000E+00    2.240799E+00
    1.099999E+00    2.250735E+00
    1.149999E+00    2.261494E+00
    1.199999E+00    2.273158E+00
    1.249999E+00    2.285824E+00
    1.299999E+00    2.299612E+00
    1.349999E+00    2.314666E+00
    1.399999E+00    2.331167E+00
    1.449999E+00    2.349348E+00
    1.499999E+00    2.369509E+00
    1.549999E+00    2.392059E+00
    1.599999E+00    2.417566E+00
    1.649999E+00    2.446874E+00
    1.699999E+00    2.481325E+00
    1.749999E+00    2.523308E+00
    1.799999E+00    2.577925E+00
    1.849999E+00    2.659785E+00
    1.899999E+00    2.694501E+00
    1.949999E+00    2.751115E+00
    1.999999E+00    2.651912E+00
    2.049999E+00    2.889345E+00
    2.099999E+00    3.063058E+00
    2.149999E+00    2.597893E+00
    2.199999E+00    2.571037E+00
    2.249999E+00    2.037073E+00
    2.299999E+00    2.064999E+00
    2.349999E+00    2.430114E+00
    2.399999E+00    2.533041E+00
    2.449999E+00    2.559271E+00
    2.499999E+00    2.841911E+00
    2.549999E+00    3.160448E+00
    2.599999E+00    2.759447E+00
    2.649999E+00    2.793963E+00
    2.699999E+00    3.526809E+00
    2.749999E+00    2.784728E+00
    2.799999E+00    3.026677E+00
    2.849999E+00    2.251893E+00
    2.899999E+00    1.540999E+00
    2.949999E+00    2.502090E+00
    2.999999E+00    2.218580E+00
    3.049999E+00    2.343808E+00
    3.099999E+00    2.667346E+00
    3.149999E+00    2.431591E+00
    3.199998E+00    2.088897E+00
    3.249998E+00    2.195323E+00
    3.299998E+00    1.977139E+00
    3.349998E+00    1.548637E+00
    3.399998E+00    2.332930E+00
    3.449998E+00    2.217732E+00
    3.499998E+00    2.871037E+00
    3.549998E+00    2.763261E+00
    3.599998E+00    2.600257E+00
    3.649998E+00    2.095729E+00
    3.699998E+00    2.169859E+00
    3.749998E+00    2.406733E+00
    3.799998E+00    2.805469E+00
    3.849998E+00    2.102994E+00
    3.899998E+00    1.625056E+00
    3.949998E+00    1.765053E+00
    3.999998E+00    1.842977E+00
    4.049998E+00    1.948937E+00
    4.099998E+00    2.572449E+00
    4.149998E+00    2.342064E+00
    4.199998E+00    2.641223E+00
    4.249998E+00    2.244007E+00
    4.299998E+00    1.935202E+00
    4.349998E+00    1.865606E+00
    4.399998E+00    1.564866E+00
    4.449998E+00    8.373384E-01
    4.499998E+00    6.345417E-01
    4.549998E+00    1.195212E+00
    4.599998E+00    1.592468E+00
    4.649998E+00    1.441072E+00
    4.699998E+00    2.087132E+00
    4.749998E+00    2.135549E+00
    4.799998E+00    1.791864E+00
    4.849998E+00    1.658720E+00
    4.899998E+00    1.505165E+00
    4.949998E+00    1.989084E+00
    4.999998E+00    1.926710E+00
    5.049998E+00    1.237429E+00
    5.099998E+00    1.348291E+00
    5.149998E+00    1.562981E+00
    5.199998E+00    9.440783E-01
    5.249998E+00    9.071508E-01
    5.299998E+00    1.322061E+00
    5.349997E+00    9.075472E-01
    5.399997E+00    9.847133E-01
    5.449997E+00    1.551848E+00
    5.499997E+00    1.174749E+00
    5.549997E+00    1.120467E+00
    5.599997E+00    1.360476E+00
    5.649997E+00    1.441961E+00
    5.699997E+00    1.404262E+00
    5.749997E+00    1.297982E+00
    5.799997E+00    7.246664E-01
    5.849997E+00    1.083419E+00
