 #calculated the component:  1  1  of dielectric function
 #broadening:    0.000000E+00    1.837465E-03
 #scissors shift:    0.000000E+00
 #energy window:    1.072773E+02eV    3.942369E+00Ha
 
 # Energy(eV)         Im(eps(w))
    9.999995E-03    1.682991E+00
    1.999999E-02    3.436197E+00
    2.999999E-02    5.335559E+00
    3.999998E-02    7.468900E+00
    4.999998E-02    9.942786E+00
    5.999997E-02    1.288976E+01
    6.999997E-02    1.647406E+01
    7.999996E-02    2.088977E+01
    8.999996E-02    2.633629E+01
    9.999995E-02    3.293838E+01
    1.099999E-01    4.055937E+01
    1.199999E-01    4.848490E+01
    1.299999E-01    5.515731E+01
    1.399999E-01    5.851136E+01
    1.499999E-01    5.725013E+01
    1.599999E-01    5.195778E+01
    1.699999E-01    4.457569E+01
    1.799999E-01    3.697167E+01
    1.899999E-01    3.019708E+01
    1.999999E-01    2.458734E+01
    2.099999E-01    2.009984E+01
    2.199999E-01    1.655742E+01
    2.299999E-01    1.376584E+01
    2.399999E-01    1.155624E+01
    2.499999E-01    9.794185E+00
    2.599999E-01    8.376575E+00
    2.699999E-01    7.225503E+00
    2.799999E-01    6.282286E+00
    2.899999E-01    5.502603E+00
    2.999999E-01    4.852774E+00
    3.099999E-01    4.307006E+00
    3.199998E-01    3.845381E+00
    3.299998E-01    3.452382E+00
    3.399998E-01    3.115813E+00
    3.499998E-01    2.826012E+00
    3.599998E-01    2.575258E+00
    3.699998E-01    2.357337E+00
    3.799998E-01    2.167212E+00
    3.899998E-01    2.000773E+00
    3.999998E-01    1.854645E+00
    4.099998E-01    1.726043E+00
    4.199998E-01    1.612657E+00
    4.299998E-01    1.512564E+00
    4.399998E-01    1.424157E+00
    4.499998E-01    1.346092E+00
    4.599998E-01    1.277240E+00
    4.699998E-01    1.216661E+00
    4.799998E-01    1.163567E+00
    4.899998E-01    1.117308E+00
    4.999998E-01    1.077350E+00
    5.099998E-01    1.043269E+00
    5.199998E-01    1.014734E+00
    5.299998E-01    9.915067E-01
    5.399997E-01    9.734385E-01
    5.499997E-01    9.604683E-01
    5.599997E-01    9.526284E-01
    5.699997E-01    9.500513E-01
    5.799997E-01    9.529823E-01
    5.899997E-01    9.617967E-01
    5.999997E-01    9.770258E-01
    6.099997E-01    9.993908E-01
    6.199997E-01    1.029851E+00
    6.299997E-01    1.069667E+00
    6.399997E-01    1.120493E+00
    6.499997E-01    1.184494E+00
    6.599997E-01    1.264516E+00
    6.699997E-01    1.364312E+00
    6.799997E-01    1.488859E+00
    6.899997E-01    1.644775E+00
    6.999997E-01    1.840862E+00
    7.099997E-01    2.088757E+00
    7.199997E-01    2.403539E+00
    7.299997E-01    2.803851E+00
    7.399997E-01    3.310328E+00
    7.499996E-01    3.939590E+00
    7.599996E-01    4.688907E+00
    7.699996E-01    5.506929E+00
    7.799996E-01    6.259543E+00
    7.899996E-01    6.736710E+00
    7.999996E-01    6.757868E+00
    8.099996E-01    6.316192E+00
    8.199996E-01    5.584872E+00
    8.299996E-01    4.776599E+00
    8.399996E-01    4.031731E+00
    8.499996E-01    3.406349E+00
    8.599996E-01    2.905602E+00
    8.699996E-01    2.513874E+00
    8.799996E-01    2.210958E+00
    8.899996E-01    1.978524E+00
    8.999996E-01    1.801916E+00
    9.099996E-01    1.670137E+00
    9.199996E-01    1.575317E+00
    9.299996E-01    1.512152E+00
    9.399996E-01    1.477469E+00
    9.499996E-01    1.469954E+00
    9.599995E-01    1.490018E+00
    9.699995E-01    1.539756E+00
    9.799995E-01    1.622860E+00
    9.899995E-01    1.744183E+00
    9.999995E-01    1.908257E+00
    1.010000E+00    2.115440E+00
    1.020000E+00    2.354226E+00
    1.030000E+00    2.591141E+00
    1.040000E+00    2.769260E+00
    1.050000E+00    2.833281E+00
    1.060000E+00    2.772513E+00
    1.069999E+00    2.632244E+00
    1.079999E+00    2.477805E+00
    1.089999E+00    2.358379E+00
    1.099999E+00    2.299557E+00
    1.109999E+00    2.312145E+00
    1.119999E+00    2.401112E+00
    1.129999E+00    2.569203E+00
    1.139999E+00    2.814349E+00
    1.149999E+00    3.119964E+00
    1.159999E+00    3.439497E+00
    1.169999E+00    3.688536E+00
    1.179999E+00    3.772513E+00
    1.189999E+00    3.651674E+00
    1.199999E+00    3.375389E+00
    1.209999E+00    3.038440E+00
    1.219999E+00    2.718373E+00
    1.229999E+00    2.454013E+00
    1.239999E+00    2.255842E+00
    1.249999E+00    2.121242E+00
    1.259999E+00    2.044151E+00
    1.269999E+00    2.019518E+00
    1.279999E+00    2.044988E+00
    1.289999E+00    2.121443E+00
    1.299999E+00    2.253072E+00
    1.309999E+00    2.446965E+00
    1.319999E+00    2.711522E+00
    1.329999E+00    3.051955E+00
    1.339999E+00    3.460171E+00
    1.349999E+00    3.897951E+00
    1.359999E+00    4.282857E+00
    1.369999E+00    4.504448E+00
    1.379999E+00    4.487250E+00
    1.389999E+00    4.249514E+00
    1.399999E+00    3.886973E+00
    1.409999E+00    3.504441E+00
    1.419999E+00    3.169556E+00
    1.429999E+00    2.909909E+00
    1.439999E+00    2.729240E+00
    1.449999E+00    2.622029E+00
    1.459999E+00    2.581572E+00
    1.469999E+00    2.603426E+00
    1.479999E+00    2.686636E+00
    1.489999E+00    2.834107E+00
    1.499999E+00    3.052422E+00
    1.509999E+00    3.350606E+00
    1.519999E+00    3.736645E+00
    1.529999E+00    4.210130E+00
    1.539999E+00    4.751530E+00
    1.549999E+00    5.317363E+00
    1.559999E+00    5.859320E+00
    1.569999E+00    6.361791E+00
    1.579999E+00    6.843305E+00
    1.589999E+00    7.294522E+00
    1.599999E+00    7.620570E+00
    1.609999E+00    7.676743E+00
    1.619999E+00    7.394485E+00
    1.629999E+00    6.859506E+00
    1.639999E+00    6.243634E+00
    1.649999E+00    5.691719E+00
    1.659999E+00    5.278615E+00
    1.669999E+00    5.024363E+00
    1.679999E+00    4.916855E+00
    1.689999E+00    4.920333E+00
    1.699999E+00    4.974045E+00
    1.709999E+00    5.001101E+00
    1.719999E+00    4.944941E+00
    1.729999E+00    4.808424E+00
    1.739999E+00    4.645664E+00
    1.749999E+00    4.517790E+00
    1.759999E+00    4.464821E+00
    1.769999E+00    4.506063E+00
    1.779999E+00    4.650913E+00
    1.789999E+00    4.907675E+00
    1.799999E+00    5.288261E+00
    1.809999E+00    5.809634E+00
    1.819999E+00    6.491932E+00
    1.829999E+00    7.351147E+00
    1.839999E+00    8.383043E+00
    1.849999E+00    9.540044E+00
    1.859999E+00    1.072244E+01
    1.869999E+00    1.182447E+01
    1.879999E+00    1.282935E+01
    1.889999E+00    1.384500E+01
    1.899999E+00    1.500523E+01
    1.909999E+00    1.632274E+01
    1.919999E+00    1.761607E+01
    1.929999E+00    1.856857E+01
    1.939999E+00    1.891771E+01
    1.949999E+00    1.864080E+01
    1.959999E+00    1.793617E+01
    1.969999E+00    1.704114E+01
    1.979999E+00    1.610626E+01
    1.989999E+00    1.518829E+01
    1.999999E+00    1.431376E+01
    2.009999E+00    1.354451E+01
    2.019999E+00    1.296815E+01
    2.029999E+00    1.262781E+01
    2.039999E+00    1.247586E+01
    2.049999E+00    1.239978E+01
    2.059999E+00    1.230732E+01
    2.069999E+00    1.219408E+01
    2.079999E+00    1.211530E+01
    2.089999E+00    1.210629E+01
    2.099999E+00    1.216115E+01
    2.109999E+00    1.227243E+01
    2.119999E+00    1.243939E+01
    2.129999E+00    1.263152E+01
    2.139999E+00    1.278905E+01
    2.149999E+00    1.287189E+01
    2.159999E+00    1.288657E+01
    2.169999E+00    1.287355E+01
    2.179999E+00    1.289588E+01
    2.189999E+00    1.303015E+01
    2.199999E+00    1.333366E+01
    2.209999E+00    1.382395E+01
    2.219999E+00    1.450358E+01
    2.229999E+00    1.537244E+01
    2.239999E+00    1.638130E+01
    2.249999E+00    1.739288E+01
    2.259999E+00    1.822096E+01
    2.269999E+00    1.871206E+01
    2.279999E+00    1.880821E+01
    2.289999E+00    1.856759E+01
    2.299999E+00    1.812804E+01
    2.309999E+00    1.763667E+01
    2.319999E+00    1.719617E+01
    2.329999E+00    1.684152E+01
    2.339999E+00    1.653926E+01
    2.349999E+00    1.621022E+01
    2.359999E+00    1.578327E+01
    2.369999E+00    1.525475E+01
    2.379999E+00    1.469975E+01
    2.389999E+00    1.423234E+01
    2.399999E+00    1.394573E+01
    2.409999E+00    1.386370E+01
    2.419999E+00    1.393684E+01
    2.429999E+00    1.408227E+01
    2.439999E+00    1.422103E+01
    2.449999E+00    1.428526E+01
    2.459999E+00    1.422968E+01
    2.469999E+00    1.407112E+01
    2.479999E+00    1.389969E+01
    2.489999E+00    1.382675E+01
    2.499999E+00    1.391438E+01
    2.509999E+00    1.413554E+01
    2.519999E+00    1.438192E+01
    2.529999E+00    1.451881E+01
    2.539999E+00    1.446711E+01
    2.549999E+00    1.425714E+01
    2.559999E+00    1.401786E+01
    2.569999E+00    1.391268E+01
    2.579999E+00    1.405095E+01
    2.589999E+00    1.442367E+01
    2.599999E+00    1.490289E+01
    2.609999E+00    1.532058E+01
    2.619999E+00    1.558428E+01
    2.629999E+00    1.571201E+01
    2.639999E+00    1.575361E+01
    2.649999E+00    1.572773E+01
    2.659999E+00    1.564109E+01
    2.669999E+00    1.548955E+01
    2.679999E+00    1.521433E+01
    2.689999E+00    1.471541E+01
    2.699999E+00    1.393445E+01
    2.709999E+00    1.292315E+01
    2.719999E+00    1.183387E+01
    2.729999E+00    1.083580E+01
    2.739999E+00    1.003051E+01
    2.749999E+00    9.424345E+00
    2.759999E+00    8.952009E+00
    2.769999E+00    8.533474E+00
    2.779999E+00    8.137530E+00
    2.789999E+00    7.798938E+00
    2.799999E+00    7.578887E+00
    2.809999E+00    7.521543E+00
    2.819999E+00    7.635559E+00
    2.829999E+00    7.886435E+00
    2.839999E+00    8.191796E+00
    2.849999E+00    8.440370E+00
    2.859999E+00    8.553082E+00
    2.869999E+00    8.542746E+00
    2.879999E+00    8.496411E+00
    2.889999E+00    8.492799E+00
    2.899999E+00    8.543597E+00
    2.909999E+00    8.604350E+00
    2.919999E+00    8.629618E+00
    2.929999E+00    8.614568E+00
    2.939999E+00    8.590828E+00
    2.949999E+00    8.595663E+00
    2.959999E+00    8.653250E+00
    2.969999E+00    8.777038E+00
    2.979999E+00    8.960247E+00
    2.989999E+00    9.154041E+00
    2.999999E+00    9.287627E+00
    3.009999E+00    9.339050E+00
    3.019999E+00    9.369201E+00
    3.029999E+00    9.467373E+00
    3.039999E+00    9.681900E+00
    3.049999E+00    1.000317E+01
    3.059999E+00    1.038321E+01
    3.069999E+00    1.075938E+01
    3.079999E+00    1.107048E+01
    3.089999E+00    1.126132E+01
    3.099999E+00    1.129330E+01
    3.109999E+00    1.117824E+01
    3.119999E+00    1.099646E+01
    3.129999E+00    1.086341E+01
    3.139999E+00    1.087967E+01
    3.149999E+00    1.109729E+01
    3.159999E+00    1.150134E+01
    3.169999E+00    1.200680E+01
    3.179999E+00    1.248439E+01
    3.189998E+00    1.282438E+01
    3.199998E+00    1.299600E+01
    3.209998E+00    1.303220E+01
    3.219998E+00    1.296362E+01
    3.229998E+00    1.280015E+01
    3.239998E+00    1.256456E+01
    3.249998E+00    1.229900E+01
    3.259998E+00    1.204133E+01
    3.269998E+00    1.182464E+01
    3.279998E+00    1.168506E+01
    3.289998E+00    1.164021E+01
    3.299998E+00    1.165979E+01
    3.309998E+00    1.167681E+01
    3.319998E+00    1.164549E+01
    3.329998E+00    1.159105E+01
    3.339998E+00    1.160059E+01
    3.349998E+00    1.176116E+01
    3.359998E+00    1.209710E+01
    3.369998E+00    1.255475E+01
    3.379998E+00    1.304390E+01
    3.389998E+00    1.349275E+01
    3.399998E+00    1.384670E+01
    3.409998E+00    1.403531E+01
    3.419998E+00    1.399927E+01
    3.429998E+00    1.375115E+01
    3.439998E+00    1.337210E+01
    3.449998E+00    1.294802E+01
    3.459998E+00    1.252281E+01
    3.469998E+00    1.210492E+01
    3.479998E+00    1.169363E+01
    3.489998E+00    1.128146E+01
    3.499998E+00    1.085224E+01
    3.509998E+00    1.041040E+01
    3.519998E+00    1.000537E+01
    3.529998E+00    9.704554E+00
    3.539998E+00    9.550904E+00
    3.549998E+00    9.555256E+00
    3.559998E+00    9.712999E+00
    3.569998E+00    1.001057E+01
    3.579998E+00    1.042042E+01
    3.589998E+00    1.090761E+01
    3.599998E+00    1.144417E+01
    3.609998E+00    1.200684E+01
    3.619998E+00    1.256919E+01
    3.629998E+00    1.310634E+01
    3.639998E+00    1.359844E+01
    3.649998E+00    1.403726E+01
    3.659998E+00    1.443945E+01
    3.669998E+00    1.484710E+01
    3.679998E+00    1.531314E+01
    3.689998E+00    1.587760E+01
    3.699998E+00    1.654375E+01
    3.709998E+00    1.726684E+01
    3.719998E+00    1.796325E+01
    3.729998E+00    1.853772E+01
    3.739998E+00    1.891885E+01
    3.749998E+00    1.909484E+01
    3.759998E+00    1.912505E+01
    3.769998E+00    1.910157E+01
    3.779998E+00    1.908971E+01
    3.789998E+00    1.910553E+01
    3.799998E+00    1.913472E+01
    3.809998E+00    1.915791E+01
    3.819998E+00    1.916387E+01
    3.829998E+00    1.916026E+01
    3.839998E+00    1.919054E+01
    3.849998E+00    1.933329E+01
    3.859998E+00    1.966359E+01
    3.869998E+00    2.019854E+01
    3.879998E+00    2.086832E+01
    3.889998E+00    2.154729E+01
    3.899998E+00    2.214781E+01
    3.909998E+00    2.270680E+01
    3.919998E+00    2.336737E+01
    3.929998E+00    2.426965E+01
    3.939998E+00    2.545443E+01
    3.949998E+00    2.683311E+01
    3.959998E+00    2.822646E+01
    3.969998E+00    2.944786E+01
    3.979998E+00    3.036838E+01
    3.989998E+00    3.092486E+01
    3.999998E+00    3.110051E+01
    4.009998E+00    3.093782E+01
    4.019998E+00    3.057192E+01
    4.029998E+00    3.021157E+01
    4.039998E+00    3.005173E+01
    4.049998E+00    3.018900E+01
    4.059998E+00    3.059704E+01
    4.069998E+00    3.113313E+01
    4.079998E+00    3.156708E+01
    4.089998E+00    3.166325E+01
    4.099998E+00    3.127157E+01
    4.109998E+00    3.036558E+01
    4.119998E+00    2.905448E+01
    4.129998E+00    2.756697E+01
    4.139998E+00    2.614443E+01
    4.149998E+00    2.490574E+01
    4.159998E+00    2.383866E+01
    4.169998E+00    2.291783E+01
    4.179998E+00    2.218563E+01
    4.189998E+00    2.171574E+01
    4.199998E+00    2.154039E+01
    4.209998E+00    2.163325E+01
    4.219998E+00    2.195009E+01
    4.229998E+00    2.244903E+01
    4.239998E+00    2.306091E+01
    4.249998E+00    2.369433E+01
    4.259998E+00    2.429613E+01
    4.269998E+00    2.487190E+01
    4.279998E+00    2.544585E+01
    4.289998E+00    2.602463E+01
    4.299998E+00    2.659651E+01
    4.309998E+00    2.714975E+01
    4.319998E+00    2.766568E+01
    4.329998E+00    2.807981E+01
    4.339998E+00    2.827443E+01
    4.349998E+00    2.812225E+01
    4.359998E+00    2.751387E+01
    4.369998E+00    2.637932E+01
    4.379998E+00    2.477403E+01
    4.389998E+00    2.293053E+01
    4.399998E+00    2.115152E+01
    4.409998E+00    1.964069E+01
    4.419998E+00    1.843011E+01
    4.429998E+00    1.743656E+01
    4.439998E+00    1.657167E+01
    4.449998E+00    1.580260E+01
    4.459998E+00    1.513095E+01
    4.469998E+00    1.455329E+01
    4.479998E+00    1.406001E+01
    4.489998E+00    1.365222E+01
    4.499998E+00    1.333581E+01
    4.509998E+00    1.309911E+01
    4.519998E+00    1.291079E+01
    4.529998E+00    1.275066E+01
    4.539998E+00    1.263025E+01
    4.549998E+00    1.256618E+01
    4.559998E+00    1.253581E+01
    4.569998E+00    1.246199E+01
    4.579998E+00    1.224839E+01
    4.589998E+00    1.184381E+01
    4.599998E+00    1.127583E+01
    4.609998E+00    1.063104E+01
    4.619998E+00    1.000973E+01
    4.629998E+00    9.486326E+00
    4.639998E+00    9.092578E+00
    4.649998E+00    8.821367E+00
    4.659998E+00    8.643354E+00
    4.669998E+00    8.532119E+00
    4.679998E+00    8.484817E+00
    4.689998E+00    8.520732E+00
    4.699998E+00    8.663177E+00
    4.709998E+00    8.923196E+00
    4.719998E+00    9.292488E+00
    4.729998E+00    9.744569E+00
    4.739998E+00    1.023812E+01
    4.749998E+00    1.071746E+01
    4.759998E+00    1.111859E+01
    4.769998E+00    1.139527E+01
    4.779998E+00    1.155257E+01
    4.789998E+00    1.165109E+01
    4.799998E+00    1.177114E+01
    4.809998E+00    1.197170E+01
    4.819998E+00    1.227223E+01
    4.829998E+00    1.264926E+01
    4.839998E+00    1.303680E+01
    4.849998E+00    1.333896E+01
    4.859998E+00    1.346623E+01
    4.869998E+00    1.337577E+01
    4.879998E+00    1.308277E+01
    4.889998E+00    1.265442E+01
    4.899998E+00    1.220123E+01
    4.909998E+00    1.183997E+01
    4.919998E+00    1.164190E+01
    4.929998E+00    1.161713E+01
    4.939998E+00    1.173778E+01
    4.949998E+00    1.196386E+01
    4.959998E+00    1.225026E+01
    4.969998E+00    1.253859E+01
    4.979998E+00    1.275621E+01
    4.989998E+00    1.284205E+01
    4.999998E+00    1.278596E+01
    5.009998E+00    1.264366E+01
    5.019998E+00    1.249830E+01
    5.029998E+00    1.239107E+01
    5.039998E+00    1.228669E+01
    5.049998E+00    1.210686E+01
    5.059998E+00    1.179497E+01
    5.069998E+00    1.135885E+01
    5.079998E+00    1.086985E+01
    5.089998E+00    1.042010E+01
    5.099998E+00    1.006808E+01
    5.109998E+00    9.815613E+00
    5.119998E+00    9.627061E+00
    5.129998E+00    9.468986E+00
    5.139998E+00    9.340730E+00
    5.149998E+00    9.272622E+00
    5.159998E+00    9.291789E+00
    5.169998E+00    9.385011E+00
    5.179998E+00    9.492868E+00
    5.189998E+00    9.544043E+00
    5.199998E+00    9.501647E+00
    5.209998E+00    9.377758E+00
    5.219998E+00    9.208726E+00
    5.229998E+00    9.025866E+00
    5.239998E+00    8.846225E+00
    5.249998E+00    8.676769E+00
    5.259998E+00    8.518190E+00
    5.269998E+00    8.363905E+00
    5.279998E+00    8.202627E+00
    5.289998E+00    8.034269E+00
    5.299998E+00    7.881607E+00
    5.309997E+00    7.775450E+00
    5.319997E+00    7.726695E+00
    5.329997E+00    7.715291E+00
    5.339997E+00    7.705993E+00
    5.349997E+00    7.674115E+00
    5.359997E+00    7.616522E+00
    5.369997E+00    7.543037E+00
    5.379997E+00    7.466130E+00
    5.389997E+00    7.400171E+00
    5.399997E+00    7.361542E+00
    5.409997E+00    7.363359E+00
    5.419997E+00    7.409031E+00
    5.429997E+00    7.489350E+00
    5.439997E+00    7.587135E+00
    5.449997E+00    7.686402E+00
    5.459997E+00    7.779049E+00
    5.469997E+00    7.871758E+00
    5.479997E+00    7.990120E+00
    5.489997E+00    8.164839E+00
    5.499997E+00    8.404448E+00
    5.509997E+00    8.677883E+00
    5.519997E+00    8.924876E+00
    5.529997E+00    9.096107E+00
    5.539997E+00    9.192990E+00
    5.549997E+00    9.264019E+00
    5.559997E+00    9.363238E+00
    5.569997E+00    9.513056E+00
    5.579997E+00    9.695154E+00
    5.589997E+00    9.874622E+00
    5.599997E+00    1.003565E+01
    5.609997E+00    1.018691E+01
    5.619997E+00    1.033354E+01
    5.629997E+00    1.044983E+01
    5.639997E+00    1.048257E+01
    5.649997E+00    1.038862E+01
    5.659997E+00    1.017141E+01
    5.669997E+00    9.882886E+00
    5.679997E+00    9.595343E+00
    5.689997E+00    9.366663E+00
    5.699997E+00    9.224729E+00
    5.709997E+00    9.174242E+00
    5.719997E+00    9.203125E+00
    5.729997E+00    9.281529E+00
    5.739997E+00    9.365969E+00
    5.749997E+00    9.408999E+00
    5.759997E+00    9.370198E+00
    5.769997E+00    9.231640E+00
    5.779997E+00    9.009555E+00
    5.789997E+00    8.744363E+00
    5.799997E+00    8.476150E+00
    5.809997E+00    8.230475E+00
    5.819997E+00    8.020900E+00
    5.829997E+00    7.855210E+00
    5.839997E+00    7.736013E+00
    5.849997E+00    7.663824E+00
    5.859997E+00    7.644503E+00
    5.869997E+00    7.688156E+00
    5.879997E+00    7.797470E+00
    5.889997E+00    7.958896E+00
    5.899997E+00    8.143987E+00
    5.909997E+00    8.318195E+00
    5.919997E+00    8.455322E+00
    5.929997E+00    8.549986E+00
    5.939997E+00    8.618479E+00
    5.949997E+00    8.687738E+00
    5.959997E+00    8.773782E+00
    5.969997E+00    8.863555E+00
    5.979997E+00    8.923717E+00
    5.989997E+00    8.937078E+00
