 #calculated the component:  1  1  of dielectric function
 #broadening:    0.000000E+00    1.837465E-03
 #scissors shift:    0.000000E+00
 #energy window:    8.462793E+01eV    3.110019E+00Ha
 
 # Energy(eV)         Im(eps(w))
    9.999995E-03    6.140550E+00
    1.999999E-02    1.253792E+01
    2.999999E-02    1.946986E+01
    3.999998E-02    2.725763E+01
    4.999998E-02    3.629101E+01
    5.999997E-02    4.705473E+01
    6.999997E-02    6.014920E+01
    7.999996E-02    7.628331E+01
    8.999996E-02    9.618346E+01
    9.999995E-02    1.202989E+02
    1.099999E-01    1.481152E+02
    1.199999E-01    1.769973E+02
    1.299999E-01    2.012315E+02
    1.399999E-01    2.132867E+02
    1.499999E-01    2.084933E+02
    1.599999E-01    1.890576E+02
    1.699999E-01    1.620844E+02
    1.799999E-01    1.343605E+02
    1.899999E-01    1.096864E+02
    1.999999E-01    8.926376E+01
    2.099999E-01    7.292803E+01
    2.199999E-01    6.003082E+01
    2.299999E-01    4.986420E+01
    2.399999E-01    4.181365E+01
    2.499999E-01    3.539022E+01
    2.599999E-01    3.021899E+01
    2.699999E-01    2.601670E+01
    2.799999E-01    2.256995E+01
    2.899999E-01    1.971755E+01
    2.999999E-01    1.733700E+01
    3.099999E-01    1.533445E+01
    3.199998E-01    1.363743E+01
    3.299998E-01    1.218942E+01
    3.399998E-01    1.094601E+01
    3.499998E-01    9.871984E+00
    3.599998E-01    8.939176E+00
    3.699998E-01    8.124896E+00
    3.799998E-01    7.410722E+00
    3.899998E-01    6.781594E+00
    3.999998E-01    6.225116E+00
    4.099998E-01    5.731023E+00
    4.199998E-01    5.290760E+00
    4.299998E-01    4.897161E+00
    4.399998E-01    4.544190E+00
    4.499998E-01    4.226738E+00
    4.599998E-01    3.940459E+00
    4.699998E-01    3.681640E+00
    4.799998E-01    3.447098E+00
    4.899998E-01    3.234090E+00
    4.999998E-01    3.040244E+00
    5.099998E-01    2.863504E+00
    5.199998E-01    2.702080E+00
    5.299998E-01    2.554408E+00
    5.399997E-01    2.419120E+00
    5.499997E-01    2.295014E+00
    5.599997E-01    2.181033E+00
    5.699997E-01    2.076243E+00
    5.799997E-01    1.979819E+00
    5.899997E-01    1.891031E+00
    5.999997E-01    1.809229E+00
    6.099997E-01    1.733839E+00
    6.199997E-01    1.664348E+00
    6.299997E-01    1.600300E+00
    6.399997E-01    1.541290E+00
    6.499997E-01    1.486958E+00
    6.599997E-01    1.436983E+00
    6.699997E-01    1.391081E+00
    6.799997E-01    1.349000E+00
    6.899997E-01    1.310520E+00
    6.999997E-01    1.275446E+00
    7.099997E-01    1.243613E+00
    7.199997E-01    1.214875E+00
    7.299997E-01    1.189114E+00
    7.399997E-01    1.166232E+00
    7.499996E-01    1.146153E+00
    7.599996E-01    1.128822E+00
    7.699996E-01    1.114210E+00
    7.799996E-01    1.102306E+00
    7.899996E-01    1.093126E+00
    7.999996E-01    1.086712E+00
    8.099996E-01    1.083134E+00
    8.199996E-01    1.082491E+00
    8.299996E-01    1.084922E+00
    8.399996E-01    1.090602E+00
    8.499996E-01    1.099757E+00
    8.599996E-01    1.112666E+00
    8.699996E-01    1.129675E+00
    8.799996E-01    1.151208E+00
    8.899996E-01    1.177789E+00
    8.999996E-01    1.210055E+00
    9.099996E-01    1.248793E+00
    9.199996E-01    1.294972E+00
    9.299996E-01    1.349790E+00
    9.399996E-01    1.414740E+00
    9.499996E-01    1.491691E+00
    9.599995E-01    1.583000E+00
    9.699995E-01    1.691659E+00
    9.799995E-01    1.821507E+00
    9.899995E-01    1.977496E+00
    9.999995E-01    2.166081E+00
    1.010000E+00    2.395735E+00
    1.020000E+00    2.677654E+00
    1.030000E+00    3.026694E+00
    1.040000E+00    3.462533E+00
    1.050000E+00    4.010968E+00
    1.060000E+00    4.704828E+00
    1.069999E+00    5.583086E+00
    1.079999E+00    6.684654E+00
    1.089999E+00    8.029520E+00
    1.099999E+00    9.576515E+00
    1.109999E+00    1.115606E+01
    1.119999E+00    1.242484E+01
    1.129999E+00    1.296230E+01
    1.139999E+00    1.254901E+01
    1.149999E+00    1.135876E+01
    1.159999E+00    9.804153E+00
    1.169999E+00    8.248133E+00
    1.179999E+00    6.881461E+00
    1.189999E+00    5.757617E+00
    1.199999E+00    4.861481E+00
    1.209999E+00    4.155167E+00
    1.219999E+00    3.599233E+00
    1.229999E+00    3.160002E+00
    1.239999E+00    2.810869E+00
    1.249999E+00    2.531502E+00
    1.259999E+00    2.306565E+00
    1.269999E+00    2.124522E+00
    1.279999E+00    1.976676E+00
    1.289999E+00    1.856437E+00
    1.299999E+00    1.758783E+00
    1.309999E+00    1.679866E+00
    1.319999E+00    1.616727E+00
    1.329999E+00    1.567089E+00
    1.339999E+00    1.529199E+00
    1.349999E+00    1.501723E+00
    1.359999E+00    1.483661E+00
    1.369999E+00    1.474291E+00
    1.379999E+00    1.473129E+00
    1.389999E+00    1.479897E+00
    1.399999E+00    1.494515E+00
    1.409999E+00    1.517087E+00
    1.419999E+00    1.547910E+00
    1.429999E+00    1.587488E+00
    1.439999E+00    1.636553E+00
    1.449999E+00    1.696108E+00
    1.459999E+00    1.767479E+00
    1.469999E+00    1.852392E+00
    1.479999E+00    1.953078E+00
    1.489999E+00    2.072419E+00
    1.499999E+00    2.214148E+00
    1.509999E+00    2.383114E+00
    1.519999E+00    2.585663E+00
    1.529999E+00    2.830135E+00
    1.539999E+00    3.127534E+00
    1.549999E+00    3.492368E+00
    1.559999E+00    3.943583E+00
    1.569999E+00    4.505277E+00
    1.579999E+00    5.206237E+00
    1.589999E+00    6.075970E+00
    1.599999E+00    7.132449E+00
    1.609999E+00    8.354704E+00
    1.619999E+00    9.639548E+00
    1.629999E+00    1.077203E+01
    1.639999E+00    1.148300E+01
    1.649999E+00    1.162285E+01
    1.659999E+00    1.129899E+01
    1.669999E+00    1.080024E+01
    1.679999E+00    1.040477E+01
    1.689999E+00    1.027010E+01
    1.699999E+00    1.042246E+01
    1.709999E+00    1.076586E+01
    1.719999E+00    1.109072E+01
    1.729999E+00    1.114235E+01
    1.739999E+00    1.077900E+01
    1.749999E+00    1.007976E+01
    1.759999E+00    9.261331E+00
    1.769999E+00    8.519426E+00
    1.779999E+00    7.960441E+00
    1.789999E+00    7.620169E+00
    1.799999E+00    7.501858E+00
    1.809999E+00    7.602314E+00
    1.819999E+00    7.924970E+00
    1.829999E+00    8.485675E+00
    1.839999E+00    9.315147E+00
    1.849999E+00    1.045894E+01
    1.859999E+00    1.197263E+01
    1.869999E+00    1.390622E+01
    1.879999E+00    1.626902E+01
    1.889999E+00    1.897500E+01
    1.899999E+00    2.179775E+01
    1.909999E+00    2.437994E+01
    1.919999E+00    2.627482E+01
    1.929999E+00    2.699453E+01
    1.939999E+00    2.621784E+01
    1.949999E+00    2.410922E+01
    1.959999E+00    2.128762E+01
    1.969999E+00    1.841719E+01
    1.979999E+00    1.591057E+01
    1.989999E+00    1.392170E+01
    1.999999E+00    1.245814E+01
    2.009999E+00    1.147509E+01
    2.019999E+00    1.092393E+01
    2.029999E+00    1.076915E+01
    2.039999E+00    1.098581E+01
    2.049999E+00    1.153978E+01
    2.059999E+00    1.234625E+01
    2.069999E+00    1.321360E+01
    2.079999E+00    1.382622E+01
    2.089999E+00    1.386214E+01
    2.099999E+00    1.321906E+01
    2.109999E+00    1.209717E+01
    2.119999E+00    1.082389E+01
    2.129999E+00    9.650564E+00
    2.139999E+00    8.696620E+00
    2.149999E+00    7.990944E+00
    2.159999E+00    7.522989E+00
    2.169999E+00    7.273754E+00
    2.179999E+00    7.229650E+00
    2.189999E+00    7.387100E+00
    2.199999E+00    7.752318E+00
    2.209999E+00    8.336856E+00
    2.219999E+00    9.145896E+00
    2.229999E+00    1.015307E+01
    2.239999E+00    1.126003E+01
    2.249999E+00    1.226901E+01
    2.259999E+00    1.294211E+01
    2.269999E+00    1.316962E+01
    2.279999E+00    1.308128E+01
    2.289999E+00    1.294290E+01
    2.299999E+00    1.296820E+01
    2.309999E+00    1.323117E+01
    2.319999E+00    1.369049E+01
    2.329999E+00    1.425894E+01
    2.339999E+00    1.483814E+01
    2.349999E+00    1.529161E+01
    2.359999E+00    1.546241E+01
    2.369999E+00    1.529015E+01
    2.379999E+00    1.486350E+01
    2.389999E+00    1.432307E+01
    2.399999E+00    1.378374E+01
    2.409999E+00    1.334964E+01
    2.419999E+00    1.310481E+01
    2.429999E+00    1.304567E+01
    2.439999E+00    1.303785E+01
    2.449999E+00    1.287178E+01
    2.459999E+00    1.241843E+01
    2.469999E+00    1.174424E+01
    2.479999E+00    1.104750E+01
    2.489999E+00    1.051435E+01
    2.499999E+00    1.024908E+01
    2.509999E+00    1.027780E+01
    2.519999E+00    1.056010E+01
    2.529999E+00    1.098164E+01
    2.539999E+00    1.135770E+01
    2.549999E+00    1.150735E+01
    2.559999E+00    1.138440E+01
    2.569999E+00    1.112056E+01
    2.579999E+00    1.092096E+01
    2.589999E+00    1.094681E+01
    2.599999E+00    1.127709E+01
    2.609999E+00    1.191073E+01
    2.619999E+00    1.275922E+01
    2.629999E+00    1.364021E+01
    2.639999E+00    1.433842E+01
    2.649999E+00    1.475686E+01
    2.659999E+00    1.501194E+01
    2.669999E+00    1.533040E+01
    2.679999E+00    1.586135E+01
    2.689999E+00    1.657512E+01
    2.699999E+00    1.727984E+01
    2.709999E+00    1.772388E+01
    2.719999E+00    1.774104E+01
    2.729999E+00    1.736268E+01
    2.739999E+00    1.678283E+01
    2.749999E+00    1.617860E+01
    2.759999E+00    1.558069E+01
    2.769999E+00    1.492467E+01
    2.779999E+00    1.418679E+01
    2.789999E+00    1.342918E+01
    2.799999E+00    1.272851E+01
    2.809999E+00    1.210288E+01
    2.819999E+00    1.150848E+01
    2.829999E+00    1.088707E+01
    2.839999E+00    1.022320E+01
    2.849999E+00    9.554028E+00
    2.859999E+00    8.918634E+00
    2.869999E+00    8.325409E+00
    2.879999E+00    7.778087E+00
    2.889999E+00    7.304417E+00
    2.899999E+00    6.943789E+00
    2.909999E+00    6.721348E+00
    2.919999E+00    6.637141E+00
    2.929999E+00    6.665883E+00
    2.939999E+00    6.762718E+00
    2.949999E+00    6.884581E+00
    2.959999E+00    7.024259E+00
    2.969999E+00    7.222232E+00
    2.979999E+00    7.539566E+00
    2.989999E+00    8.023491E+00
    2.999999E+00    8.689640E+00
    3.009999E+00    9.517177E+00
    3.019999E+00    1.045201E+01
    3.029999E+00    1.140888E+01
    3.039999E+00    1.226039E+01
    3.049999E+00    1.285197E+01
    3.059999E+00    1.309135E+01
    3.069999E+00    1.303060E+01
    3.079999E+00    1.282602E+01
    3.089999E+00    1.262967E+01
    3.099999E+00    1.252094E+01
    3.109999E+00    1.248499E+01
    3.119999E+00    1.241126E+01
    3.129999E+00    1.215169E+01
    3.139999E+00    1.165091E+01
    3.149999E+00    1.101336E+01
    3.159999E+00    1.041937E+01
    3.169999E+00    1.000945E+01
    3.179999E+00    9.846488E+00
    3.189998E+00    9.936635E+00
    3.199998E+00    1.026645E+01
    3.209998E+00    1.083376E+01
    3.219998E+00    1.164538E+01
    3.229998E+00    1.266763E+01
    3.239998E+00    1.375943E+01
    3.249998E+00    1.465411E+01
    3.259998E+00    1.506606E+01
    3.269998E+00    1.489338E+01
    3.279998E+00    1.431388E+01
    3.289998E+00    1.365463E+01
    3.299998E+00    1.319620E+01
    3.309998E+00    1.308618E+01
    3.319998E+00    1.334425E+01
    3.329998E+00    1.388012E+01
    3.339998E+00    1.451710E+01
    3.349998E+00    1.507334E+01
    3.359998E+00    1.548370E+01
    3.369998E+00    1.581195E+01
    3.379998E+00    1.610338E+01
    3.389998E+00    1.626160E+01
    3.399998E+00    1.610024E+01
    3.409998E+00    1.549473E+01
    3.419998E+00    1.446933E+01
    3.429998E+00    1.318476E+01
    3.439998E+00    1.186288E+01
    3.449998E+00    1.068802E+01
    3.459998E+00    9.757581E+00
    3.469998E+00    9.097817E+00
    3.479998E+00    8.700840E+00
    3.489998E+00    8.552404E+00
    3.499998E+00    8.645217E+00
    3.509998E+00    8.980801E+00
    3.519998E+00    9.562135E+00
    3.529998E+00    1.037567E+01
    3.539998E+00    1.136169E+01
    3.549998E+00    1.238852E+01
    3.559998E+00    1.327285E+01
    3.569998E+00    1.386251E+01
    3.579998E+00    1.409905E+01
    3.589998E+00    1.400099E+01
    3.599998E+00    1.364410E+01
    3.609998E+00    1.316291E+01
    3.619998E+00    1.271912E+01
    3.629998E+00    1.245413E+01
    3.639998E+00    1.246033E+01
    3.649998E+00    1.276547E+01
    3.659998E+00    1.332405E+01
    3.669998E+00    1.402222E+01
    3.679998E+00    1.470770E+01
    3.689998E+00    1.524644E+01
    3.699998E+00    1.558288E+01
    3.709998E+00    1.576410E+01
    3.719998E+00    1.591986E+01
    3.729998E+00    1.621450E+01
    3.739998E+00    1.677958E+01
    3.749998E+00    1.764717E+01
    3.759998E+00    1.870552E+01
    3.769998E+00    1.972087E+01
    3.779998E+00    2.046480E+01
    3.789998E+00    2.085222E+01
    3.799998E+00    2.093368E+01
    3.809998E+00    2.079388E+01
    3.819998E+00    2.049545E+01
    3.829998E+00    2.007251E+01
    3.839998E+00    1.955166E+01
    3.849998E+00    1.898046E+01
    3.859998E+00    1.844253E+01
    3.869998E+00    1.806420E+01
    3.879998E+00    1.797979E+01
    3.889998E+00    1.825680E+01
    3.899998E+00    1.884770E+01
    3.909998E+00    1.960955E+01
    3.919998E+00    2.038446E+01
    3.929998E+00    2.107855E+01
    3.939998E+00    2.166709E+01
    3.949998E+00    2.215530E+01
    3.959998E+00    2.259558E+01
    3.969998E+00    2.313414E+01
    3.979998E+00    2.395358E+01
    3.989998E+00    2.514376E+01
    3.999998E+00    2.663867E+01
    4.009998E+00    2.824759E+01
    4.019998E+00    2.973612E+01
    4.029998E+00    3.093712E+01
    4.039998E+00    3.184588E+01
    4.049998E+00    3.260860E+01
    4.059998E+00    3.338644E+01
    4.069998E+00    3.422891E+01
    4.079998E+00    3.506475E+01
    4.089998E+00    3.571797E+01
    4.099998E+00    3.587950E+01
    4.109998E+00    3.516897E+01
    4.119998E+00    3.339813E+01
    4.129998E+00    3.081692E+01
    4.139998E+00    2.800043E+01
    4.149998E+00    2.548581E+01
    4.159998E+00    2.354300E+01
    4.169998E+00    2.217222E+01
    4.179998E+00    2.121084E+01
    4.189998E+00    2.048234E+01
    4.199998E+00    1.992543E+01
    4.209998E+00    1.960677E+01
    4.219998E+00    1.963354E+01
    4.229998E+00    2.006990E+01
    4.239998E+00    2.088675E+01
    4.249998E+00    2.192233E+01
    4.259998E+00    2.288089E+01
    4.269998E+00    2.343204E+01
    4.279998E+00    2.338322E+01
    4.289998E+00    2.276992E+01
    4.299998E+00    2.175675E+01
    4.309998E+00    2.048199E+01
    4.319998E+00    1.904761E+01
    4.329998E+00    1.759848E+01
    4.339998E+00    1.631654E+01
    4.349998E+00    1.534379E+01
    4.359998E+00    1.474186E+01
    4.369998E+00    1.451256E+01
    4.379998E+00    1.463585E+01
    4.389998E+00    1.507968E+01
    4.399998E+00    1.577206E+01
    4.409998E+00    1.657256E+01
    4.419998E+00    1.729239E+01
    4.429998E+00    1.776726E+01
    4.439998E+00    1.793601E+01
    4.449998E+00    1.787369E+01
    4.459998E+00    1.773859E+01
    4.469998E+00    1.764482E+01
    4.479998E+00    1.757357E+01
    4.489998E+00    1.742973E+01
    4.499998E+00    1.718943E+01
    4.509998E+00    1.696248E+01
    4.519998E+00    1.690580E+01
    4.529998E+00    1.711625E+01
    4.539998E+00    1.761247E+01
    4.549998E+00    1.836622E+01
    4.559998E+00    1.929826E+01
    4.569998E+00    2.026321E+01
    4.579998E+00    2.110779E+01
    4.589998E+00    2.175640E+01
    4.599998E+00    2.219393E+01
    4.609998E+00    2.238662E+01
    4.619998E+00    2.230163E+01
    4.629998E+00    2.199514E+01
    4.639998E+00    2.159763E+01
    4.649998E+00    2.119159E+01
    4.659998E+00    2.075213E+01
    4.669998E+00    2.021491E+01
    4.679998E+00    1.954415E+01
    4.689998E+00    1.871982E+01
    4.699998E+00    1.772148E+01
    4.709998E+00    1.656572E+01
    4.719998E+00    1.533163E+01
    4.729998E+00    1.412769E+01
    4.739998E+00    1.304276E+01
    4.749998E+00    1.212951E+01
    4.759998E+00    1.142000E+01
    4.769998E+00    1.093844E+01
    4.779998E+00    1.069294E+01
    4.789998E+00    1.065484E+01
    4.799998E+00    1.074852E+01
    4.809998E+00    1.087378E+01
    4.819998E+00    1.095452E+01
    4.829998E+00    1.096551E+01
    4.839998E+00    1.091449E+01
    4.849998E+00    1.081939E+01
    4.859998E+00    1.069998E+01
    4.869998E+00    1.056468E+01
    4.879998E+00    1.040392E+01
    4.889998E+00    1.021480E+01
    4.899998E+00    1.002606E+01
    4.909998E+00    9.876171E+00
    4.919998E+00    9.768964E+00
    4.929998E+00    9.674455E+00
    4.939998E+00    9.576054E+00
    4.949998E+00    9.492450E+00
    4.959998E+00    9.450063E+00
    4.969998E+00    9.457321E+00
    4.979998E+00    9.499741E+00
    4.989998E+00    9.541450E+00
    4.999998E+00    9.539389E+00
    5.009998E+00    9.471436E+00
    5.019998E+00    9.354535E+00
    5.029998E+00    9.228819E+00
    5.039998E+00    9.126692E+00
    5.049998E+00    9.064195E+00
    5.059998E+00    9.045247E+00
    5.069998E+00    9.061422E+00
    5.079998E+00    9.101401E+00
    5.089998E+00    9.163573E+00
    5.099998E+00    9.247089E+00
    5.109998E+00    9.323055E+00
    5.119998E+00    9.318604E+00
    5.129998E+00    9.152895E+00
    5.139998E+00    8.808138E+00
    5.149998E+00    8.356839E+00
    5.159998E+00    7.916423E+00
    5.169998E+00    7.582031E+00
    5.179998E+00    7.387953E+00
    5.189998E+00    7.308034E+00
    5.199998E+00    7.285062E+00
    5.209998E+00    7.271775E+00
    5.219998E+00    7.250245E+00
    5.229998E+00    7.213748E+00
    5.239998E+00    7.146492E+00
    5.249998E+00    7.039006E+00
    5.259998E+00    6.910862E+00
    5.269998E+00    6.791785E+00
    5.279998E+00    6.685980E+00
    5.289998E+00    6.575776E+00
    5.299998E+00    6.457824E+00
    5.309997E+00    6.354909E+00
    5.319997E+00    6.290498E+00
    5.329997E+00    6.273598E+00
    5.339997E+00    6.312564E+00
    5.349997E+00    6.425587E+00
    5.359997E+00    6.628027E+00
    5.369997E+00    6.910693E+00
    5.379997E+00    7.227470E+00
    5.389997E+00    7.509613E+00
    5.399997E+00    7.713996E+00
    5.409997E+00    7.863056E+00
    5.419997E+00    8.020887E+00
    5.429997E+00    8.230997E+00
    5.439997E+00    8.484237E+00
    5.449997E+00    8.734046E+00
    5.459997E+00    8.933319E+00
    5.469997E+00    9.067536E+00
    5.479997E+00    9.157974E+00
    5.489997E+00    9.220990E+00
    5.499997E+00    9.227170E+00
    5.509997E+00    9.120418E+00
    5.519997E+00    8.875378E+00
    5.529997E+00    8.525607E+00
    5.539997E+00    8.150616E+00
    5.549997E+00    7.843138E+00
    5.559997E+00    7.676438E+00
    5.569997E+00    7.691666E+00
    5.579997E+00    7.902837E+00
    5.589997E+00    8.296682E+00
    5.599997E+00    8.815698E+00
    5.609997E+00    9.342520E+00
    5.619997E+00    9.723946E+00
    5.629997E+00    9.846985E+00
    5.639997E+00    9.711547E+00
    5.649997E+00    9.421520E+00
    5.659997E+00    9.097948E+00
    5.669997E+00    8.803910E+00
    5.679997E+00    8.536471E+00
    5.689997E+00    8.267110E+00
    5.699997E+00    7.994685E+00
    5.709997E+00    7.765852E+00
    5.719997E+00    7.640059E+00
    5.729997E+00    7.640696E+00
    5.739997E+00    7.738071E+00
    5.749997E+00    7.869173E+00
    5.759997E+00    7.972101E+00
    5.769997E+00    8.011060E+00
    5.779997E+00    7.989535E+00
    5.789997E+00    7.947119E+00
    5.799997E+00    7.929577E+00
    5.809997E+00    7.957498E+00
    5.819997E+00    8.027294E+00
    5.829997E+00    8.133718E+00
    5.839997E+00    8.278980E+00
    5.849997E+00    8.454692E+00
    5.859997E+00    8.617537E+00
    5.869997E+00    8.699721E+00
    5.879997E+00    8.666210E+00
    5.889997E+00    8.554799E+00
    5.899997E+00    8.442382E+00
    5.909997E+00    8.382107E+00
    5.919997E+00    8.379343E+00
    5.929997E+00    8.414525E+00
    5.939997E+00    8.475928E+00
    5.949997E+00    8.560709E+00
    5.959997E+00    8.648105E+00
    5.969997E+00    8.698764E+00
    5.979997E+00    8.695086E+00
    5.989997E+00    8.663985E+00
