 #calculated the component:  1  1  of dielectric function
 #broadening:    0.000000E+00    1.837465E-03
 #scissors shift:    0.000000E+00
 #energy window:    8.433474E+01eV    3.099245E+00Ha
 
 # Energy(eV)         Im(eps(w))
    9.999995E-03    1.884475E+01
    1.999999E-02    3.848191E+01
    2.999999E-02    5.976862E+01
    3.999998E-02    8.369636E+01
    4.999998E-02    1.114680E+02
    5.999997E-02    1.445782E+02
    6.999997E-02    1.848744E+02
    7.999996E-02    2.345265E+02
    8.999996E-02    2.957275E+02
    9.999995E-02    3.697470E+02
    1.099999E-01    4.547615E+02
    1.199999E-01    5.422830E+02
    1.299999E-01    6.144346E+02
    1.399999E-01    6.483733E+02
    1.499999E-01    6.309011E+02
    1.599999E-01    5.699151E+02
    1.699999E-01    4.873584E+02
    1.799999E-01    4.034395E+02
    1.899999E-01    3.291700E+02
    1.999999E-01    2.678667E+02
    2.099999E-01    2.188892E+02
    2.199999E-01    1.802334E+02
    2.299999E-01    1.497572E+02
    2.399999E-01    1.256147E+02
    2.499999E-01    1.063416E+02
    2.599999E-01    9.081677E+01
    2.699999E-01    7.819325E+01
    2.799999E-01    6.783313E+01
    2.899999E-01    5.925436E+01
    2.999999E-01    5.209047E+01
    3.099999E-01    4.606059E+01
    3.199998E-01    4.094766E+01
    3.299998E-01    3.658241E+01
    3.399998E-01    3.283170E+01
    3.499998E-01    2.958990E+01
    3.599998E-01    2.677253E+01
    3.699998E-01    2.431148E+01
    3.799998E-01    2.215143E+01
    3.899998E-01    2.024713E+01
    3.999998E-01    1.856133E+01
    4.099998E-01    1.706317E+01
    4.199998E-01    1.572692E+01
    4.299998E-01    1.453102E+01
    4.399998E-01    1.345728E+01
    4.499998E-01    1.249034E+01
    4.599998E-01    1.161709E+01
    4.699998E-01    1.082634E+01
    4.799998E-01    1.010849E+01
    4.899998E-01    9.455258E+00
    4.999998E-01    8.859483E+00
    5.099998E-01    8.314949E+00
    5.199998E-01    7.816238E+00
    5.299998E-01    7.358614E+00
    5.399997E-01    6.937926E+00
    5.499997E-01    6.550521E+00
    5.599997E-01    6.193179E+00
    5.699997E-01    5.863051E+00
    5.799997E-01    5.557613E+00
    5.899997E-01    5.274619E+00
    5.999997E-01    5.012068E+00
    6.099997E-01    4.768176E+00
    6.199997E-01    4.541344E+00
    6.299997E-01    4.330139E+00
    6.399997E-01    4.133271E+00
    6.499997E-01    3.949583E+00
    6.599997E-01    3.778029E+00
    6.699997E-01    3.617664E+00
    6.799997E-01    3.467633E+00
    6.899997E-01    3.327162E+00
    6.999997E-01    3.195548E+00
    7.099997E-01    3.072152E+00
    7.199997E-01    2.956393E+00
    7.299997E-01    2.847740E+00
    7.399997E-01    2.745712E+00
    7.499996E-01    2.649865E+00
    7.599996E-01    2.559799E+00
    7.699996E-01    2.475144E+00
    7.799996E-01    2.395562E+00
    7.899996E-01    2.320744E+00
    7.999996E-01    2.250409E+00
    8.099996E-01    2.184296E+00
    8.199996E-01    2.122168E+00
    8.299996E-01    2.063809E+00
    8.399996E-01    2.009017E+00
    8.499996E-01    1.957613E+00
    8.599996E-01    1.909428E+00
    8.699996E-01    1.864313E+00
    8.799996E-01    1.822129E+00
    8.899996E-01    1.782751E+00
    8.999996E-01    1.746066E+00
    9.099996E-01    1.711973E+00
    9.199996E-01    1.680382E+00
    9.299996E-01    1.651213E+00
    9.399996E-01    1.624397E+00
    9.499996E-01    1.599874E+00
    9.599995E-01    1.577594E+00
    9.699995E-01    1.557518E+00
    9.799995E-01    1.539615E+00
    9.899995E-01    1.523865E+00
    9.999995E-01    1.510257E+00
    1.010000E+00    1.498793E+00
    1.020000E+00    1.489484E+00
    1.030000E+00    1.482352E+00
    1.040000E+00    1.477434E+00
    1.050000E+00    1.474777E+00
    1.060000E+00    1.474447E+00
    1.069999E+00    1.476523E+00
    1.079999E+00    1.481102E+00
    1.089999E+00    1.488302E+00
    1.099999E+00    1.498266E+00
    1.109999E+00    1.511158E+00
    1.119999E+00    1.527176E+00
    1.129999E+00    1.546550E+00
    1.139999E+00    1.569551E+00
    1.149999E+00    1.596496E+00
    1.159999E+00    1.627756E+00
    1.169999E+00    1.663769E+00
    1.179999E+00    1.705047E+00
    1.189999E+00    1.752198E+00
    1.199999E+00    1.805940E+00
    1.209999E+00    1.867125E+00
    1.219999E+00    1.936774E+00
    1.229999E+00    2.016109E+00
    1.239999E+00    2.106607E+00
    1.249999E+00    2.210059E+00
    1.259999E+00    2.328654E+00
    1.269999E+00    2.465085E+00
    1.279999E+00    2.622688E+00
    1.289999E+00    2.805633E+00
    1.299999E+00    3.019169E+00
    1.309999E+00    3.269967E+00
    1.319999E+00    3.566577E+00
    1.329999E+00    3.920054E+00
    1.339999E+00    4.344823E+00
    1.349999E+00    4.859846E+00
    1.359999E+00    5.490206E+00
    1.369999E+00    6.269168E+00
    1.379999E+00    7.240683E+00
    1.389999E+00    8.461913E+00
    1.399999E+00    1.000429E+01
    1.409999E+00    1.194910E+01
    1.419999E+00    1.436811E+01
    1.429999E+00    1.727140E+01
    1.439999E+00    2.050173E+01
    1.449999E+00    2.359487E+01
    1.459999E+00    2.575673E+01
    1.469999E+00    2.620543E+01
    1.479999E+00    2.476376E+01
    1.489999E+00    2.201939E+01
    1.499999E+00    1.882885E+01
    1.509999E+00    1.581186E+01
    1.519999E+00    1.324194E+01
    1.529999E+00    1.116488E+01
    1.539999E+00    9.526656E+00
    1.549999E+00    8.246786E+00
    1.559999E+00    7.249017E+00
    1.569999E+00    6.470589E+00
    1.579999E+00    5.862807E+00
    1.589999E+00    5.388872E+00
    1.599999E+00    5.021295E+00
    1.609999E+00    4.739649E+00
    1.619999E+00    4.528808E+00
    1.629999E+00    4.377639E+00
    1.639999E+00    4.278061E+00
    1.649999E+00    4.224366E+00
    1.659999E+00    4.212751E+00
    1.669999E+00    4.241005E+00
    1.679999E+00    4.308313E+00
    1.689999E+00    4.415158E+00
    1.699999E+00    4.563313E+00
    1.709999E+00    4.755911E+00
    1.719999E+00    4.997611E+00
    1.729999E+00    5.294858E+00
    1.739999E+00    5.656276E+00
    1.749999E+00    6.093229E+00
    1.759999E+00    6.620596E+00
    1.769999E+00    7.257848E+00
    1.779999E+00    8.030528E+00
    1.789999E+00    8.972257E+00
    1.799999E+00    1.012741E+01
    1.809999E+00    1.155450E+01
    1.819999E+00    1.333010E+01
    1.829999E+00    1.555213E+01
    1.839999E+00    1.833939E+01
    1.849999E+00    2.181938E+01
    1.859999E+00    2.608941E+01
    1.869999E+00    3.113290E+01
    1.879999E+00    3.670307E+01
    1.889999E+00    4.228117E+01
    1.899999E+00    4.725985E+01
    1.909999E+00    5.119605E+01
    1.919999E+00    5.368113E+01
    1.929999E+00    5.403435E+01
    1.939999E+00    5.164822E+01
    1.949999E+00    4.677895E+01
    1.959999E+00    4.058146E+01
    1.969999E+00    3.431693E+01
    1.979999E+00    2.876040E+01
    1.989999E+00    2.417921E+01
    1.999999E+00    2.054957E+01
    2.009999E+00    1.773891E+01
    2.019999E+00    1.560056E+01
    2.029999E+00    1.401020E+01
    2.039999E+00    1.287528E+01
    2.049999E+00    1.213422E+01
    2.059999E+00    1.175285E+01
    2.069999E+00    1.171990E+01
    2.079999E+00    1.203989E+01
    2.089999E+00    1.271806E+01
    2.099999E+00    1.372728E+01
    2.109999E+00    1.494756E+01
    2.119999E+00    1.609619E+01
    2.129999E+00    1.674046E+01
    2.139999E+00    1.650881E+01
    2.149999E+00    1.538052E+01
    2.159999E+00    1.369827E+01
    2.169999E+00    1.188539E+01
    2.179999E+00    1.022061E+01
    2.189999E+00    8.813762E+00
    2.199999E+00    7.672673E+00
    2.209999E+00    6.763744E+00
    2.219999E+00    6.044415E+00
    2.229999E+00    5.476102E+00
    2.239999E+00    5.027741E+00
    2.249999E+00    4.675704E+00
    2.259999E+00    4.402651E+00
    2.269999E+00    4.196323E+00
    2.279999E+00    4.048576E+00
    2.289999E+00    3.954726E+00
    2.299999E+00    3.913178E+00
    2.309999E+00    3.925271E+00
    2.319999E+00    3.995232E+00
    2.329999E+00    4.129914E+00
    2.339999E+00    4.337653E+00
    2.349999E+00    4.624718E+00
    2.359999E+00    4.986801E+00
    2.369999E+00    5.393639E+00
    2.379999E+00    5.773110E+00
    2.389999E+00    6.020146E+00
    2.399999E+00    6.055320E+00
    2.409999E+00    5.891735E+00
    2.419999E+00    5.625211E+00
    2.429999E+00    5.361774E+00
    2.439999E+00    5.169571E+00
    2.449999E+00    5.078522E+00
    2.459999E+00    5.098032E+00
    2.469999E+00    5.231683E+00
    2.479999E+00    5.485378E+00
    2.489999E+00    5.871421E+00
    2.499999E+00    6.410889E+00
    2.509999E+00    7.135414E+00
    2.519999E+00    8.088264E+00
    2.529999E+00    9.322915E+00
    2.539999E+00    1.089422E+01
    2.549999E+00    1.283182E+01
    2.559999E+00    1.508018E+01
    2.569999E+00    1.740166E+01
    2.579999E+00    1.930669E+01
    2.589999E+00    2.018287E+01
    2.599999E+00    1.969350E+01
    2.609999E+00    1.807176E+01
    2.619999E+00    1.591417E+01
    2.629999E+00    1.375877E+01
    2.639999E+00    1.189577E+01
    2.649999E+00    1.041331E+01
    2.659999E+00    9.297996E+00
    2.669999E+00    8.503509E+00
    2.679999E+00    7.983183E+00
    2.689999E+00    7.702050E+00
    2.699999E+00    7.640121E+00
    2.709999E+00    7.792762E+00
    2.719999E+00    8.170403E+00
    2.729999E+00    8.797749E+00
    2.739999E+00    9.710700E+00
    2.749999E+00    1.094614E+01
    2.759999E+00    1.251480E+01
    2.769999E+00    1.434410E+01
    2.779999E+00    1.619380E+01
    2.789999E+00    1.761545E+01
    2.799999E+00    1.810683E+01
    2.809999E+00    1.746518E+01
    2.819999E+00    1.596769E+01
    2.829999E+00    1.413050E+01
    2.839999E+00    1.237181E+01
    2.849999E+00    1.089932E+01
    2.859999E+00    9.767787E+00
    2.869999E+00    8.961210E+00
    2.879999E+00    8.444458E+00
    2.889999E+00    8.186842E+00
    2.899999E+00    8.170738E+00
    2.909999E+00    8.393822E+00
    2.919999E+00    8.868472E+00
    2.929999E+00    9.618140E+00
    2.939999E+00    1.066726E+01
    2.949999E+00    1.201797E+01
    2.959999E+00    1.360698E+01
    2.969999E+00    1.524710E+01
    2.979999E+00    1.659280E+01
    2.989999E+00    1.722406E+01
    2.999999E+00    1.690207E+01
    3.009999E+00    1.578097E+01
    3.019999E+00    1.428716E+01
    3.029999E+00    1.282021E+01
    3.039999E+00    1.160246E+01
    3.049999E+00    1.070675E+01
    3.059999E+00    1.013470E+01
    3.069999E+00    9.872284E+00
    3.079999E+00    9.913394E+00
    3.089999E+00    1.026622E+01
    3.099999E+00    1.095490E+01
    3.109999E+00    1.201835E+01
    3.119999E+00    1.350118E+01
    3.129999E+00    1.542630E+01
    3.139999E+00    1.773538E+01
    3.149999E+00    2.019794E+01
    3.159999E+00    2.235430E+01
    3.169999E+00    2.363255E+01
    3.179999E+00    2.366378E+01
    3.189998E+00    2.252496E+01
    3.199998E+00    2.067400E+01
    3.209998E+00    1.867694E+01
    3.219998E+00    1.696462E+01
    3.229998E+00    1.575584E+01
    3.239998E+00    1.510005E+01
    3.249998E+00    1.492519E+01
    3.259998E+00    1.504025E+01
    3.269998E+00    1.512981E+01
    3.279998E+00    1.484198E+01
    3.289998E+00    1.399661E+01
    3.299998E+00    1.271005E+01
    3.309998E+00    1.126595E+01
    3.319998E+00    9.906651E+00
    3.329998E+00    8.752523E+00
    3.339998E+00    7.830686E+00
    3.349998E+00    7.124046E+00
    3.359998E+00    6.603019E+00
    3.369998E+00    6.239973E+00
    3.379998E+00    6.014158E+00
    3.389998E+00    5.912534E+00
    3.399998E+00    5.928915E+00
    3.409998E+00    6.061903E+00
    3.419998E+00    6.310971E+00
    3.429998E+00    6.670213E+00
    3.439998E+00    7.122899E+00
    3.449998E+00    7.647065E+00
    3.459998E+00    8.238361E+00
    3.469998E+00    8.926057E+00
    3.479998E+00    9.745771E+00
    3.489998E+00    1.067793E+01
    3.499998E+00    1.160030E+01
    3.509998E+00    1.231140E+01
    3.519998E+00    1.264878E+01
    3.529998E+00    1.259307E+01
    3.539998E+00    1.222161E+01
    3.549998E+00    1.161202E+01
    3.559998E+00    1.084918E+01
    3.569998E+00    1.005989E+01
    3.579998E+00    9.375911E+00
    3.589998E+00    8.883127E+00
    3.599998E+00    8.615280E+00
    3.609998E+00    8.573157E+00
    3.619998E+00    8.740157E+00
    3.629998E+00    9.089389E+00
    3.639998E+00    9.593819E+00
    3.649998E+00    1.024665E+01
    3.659998E+00    1.107072E+01
    3.669998E+00    1.208814E+01
    3.679998E+00    1.326475E+01
    3.689998E+00    1.447829E+01
    3.699998E+00    1.555439E+01
    3.709998E+00    1.636339E+01
    3.719998E+00    1.689605E+01
    3.729998E+00    1.724556E+01
    3.739998E+00    1.751725E+01
    3.749998E+00    1.774792E+01
    3.759998E+00    1.790130E+01
    3.769998E+00    1.795157E+01
    3.779998E+00    1.797361E+01
    3.789998E+00    1.812982E+01
    3.799998E+00    1.857581E+01
    3.809998E+00    1.936847E+01
    3.819998E+00    2.039222E+01
    3.829998E+00    2.133556E+01
    3.839998E+00    2.181749E+01
    3.849998E+00    2.166097E+01
    3.859998E+00    2.104476E+01
    3.869998E+00    2.035291E+01
    3.879998E+00    1.993938E+01
    3.889998E+00    2.002149E+01
    3.899998E+00    2.067361E+01
    3.909998E+00    2.183243E+01
    3.919998E+00    2.328845E+01
    3.929998E+00    2.472506E+01
    3.939998E+00    2.587761E+01
    3.949998E+00    2.671272E+01
    3.959998E+00    2.741749E+01
    3.969998E+00    2.820612E+01
    3.979998E+00    2.912731E+01
    3.989998E+00    3.003649E+01
    3.999998E+00    3.080453E+01
    4.009998E+00    3.156525E+01
    4.019998E+00    3.267824E+01
    4.029998E+00    3.444843E+01
    4.039998E+00    3.689339E+01
    4.049998E+00    3.969038E+01
    4.059998E+00    4.233844E+01
    4.069998E+00    4.447033E+01
    4.079998E+00    4.601172E+01
    4.089998E+00    4.704020E+01
    4.099998E+00    4.757168E+01
    4.109998E+00    4.743591E+01
    4.119998E+00    4.635694E+01
    4.129998E+00    4.424823E+01
    4.139998E+00    4.139092E+01
    4.149998E+00    3.828781E+01
    4.159998E+00    3.534899E+01
    4.169998E+00    3.271647E+01
    4.179998E+00    3.037998E+01
    4.189998E+00    2.837956E+01
    4.199998E+00    2.682105E+01
    4.209998E+00    2.574164E+01
    4.219998E+00    2.503966E+01
    4.229998E+00    2.455470E+01
    4.239998E+00    2.420398E+01
    4.249998E+00    2.402492E+01
    4.259998E+00    2.407760E+01
    4.269998E+00    2.428268E+01
    4.279998E+00    2.434558E+01
    4.289998E+00    2.390981E+01
    4.299998E+00    2.285379E+01
    4.309998E+00    2.137503E+01
    4.319998E+00    1.976006E+01
    4.329998E+00    1.817057E+01
    4.339998E+00    1.662718E+01
    4.349998E+00    1.508659E+01
    4.359998E+00    1.353021E+01
    4.369998E+00    1.201375E+01
    4.379998E+00    1.063056E+01
    4.389998E+00    9.446971E+00
    4.399998E+00    8.482011E+00
    4.409998E+00    7.723441E+00
    4.419998E+00    7.147874E+00
    4.429998E+00    6.732309E+00
    4.439998E+00    6.457701E+00
    4.449998E+00    6.307293E+00
    4.459998E+00    6.261763E+00
    4.469998E+00    6.295251E+00
    4.479998E+00    6.380168E+00
    4.489998E+00    6.502003E+00
    4.499998E+00    6.664145E+00
    4.509998E+00    6.867128E+00
    4.519998E+00    7.085583E+00
    4.529998E+00    7.269460E+00
    4.539998E+00    7.355395E+00
    4.549998E+00    7.274411E+00
    4.559998E+00    6.986415E+00
    4.569998E+00    6.528677E+00
    4.579998E+00    6.001944E+00
    4.589998E+00    5.504355E+00
    4.599998E+00    5.092262E+00
    4.609998E+00    4.785427E+00
    4.619998E+00    4.586107E+00
    4.629998E+00    4.491862E+00
    4.639998E+00    4.500061E+00
    4.649998E+00    4.606734E+00
    4.659998E+00    4.800061E+00
    4.669998E+00    5.048335E+00
    4.679998E+00    5.288684E+00
    4.689998E+00    5.434423E+00
    4.699998E+00    5.414140E+00
    4.709998E+00    5.218083E+00
    4.719998E+00    4.903458E+00
    4.729998E+00    4.551938E+00
    4.739998E+00    4.226336E+00
    4.749998E+00    3.958343E+00
    4.759998E+00    3.756804E+00
    4.769998E+00    3.618955E+00
    4.779998E+00    3.537977E+00
    4.789998E+00    3.506673E+00
    4.799998E+00    3.518779E+00
    4.809998E+00    3.569659E+00
    4.819998E+00    3.657469E+00
    4.829998E+00    3.784243E+00
    4.839998E+00    3.955593E+00
    4.849998E+00    4.179535E+00
    4.859998E+00    4.465866E+00
    4.869998E+00    4.826190E+00
    4.879998E+00    5.273888E+00
    4.889998E+00    5.823955E+00
    4.899998E+00    6.493442E+00
    4.909998E+00    7.301707E+00
    4.919998E+00    8.265240E+00
    4.929998E+00    9.383920E+00
    4.939998E+00    1.062859E+01
    4.949998E+00    1.194506E+01
    4.959998E+00    1.327473E+01
    4.969998E+00    1.457043E+01
    4.979998E+00    1.578296E+01
    4.989998E+00    1.684169E+01
    4.999998E+00    1.768685E+01
    5.009998E+00    1.833633E+01
    5.019998E+00    1.889973E+01
    5.029998E+00    1.950778E+01
    5.039998E+00    2.021312E+01
    5.049998E+00    2.093418E+01
    5.059998E+00    2.146501E+01
    5.069998E+00    2.159765E+01
    5.079998E+00    2.132947E+01
    5.089998E+00    2.091104E+01
    5.099998E+00    2.064431E+01
    5.109998E+00    2.067407E+01
    5.119998E+00    2.093394E+01
    5.129998E+00    2.119092E+01
    5.139998E+00    2.115098E+01
    5.149998E+00    2.065408E+01
    5.159998E+00    1.982752E+01
    5.169998E+00    1.899046E+01
    5.179998E+00    1.841558E+01
    5.189998E+00    1.819828E+01
    5.199998E+00    1.827920E+01
    5.209998E+00    1.853208E+01
    5.219998E+00    1.883461E+01
    5.229998E+00    1.909594E+01
    5.239998E+00    1.925549E+01
    5.249998E+00    1.926534E+01
    5.259998E+00    1.908052E+01
    5.269998E+00    1.868420E+01
    5.279998E+00    1.812219E+01
    5.289998E+00    1.748175E+01
    5.299998E+00    1.683080E+01
    5.309997E+00    1.619955E+01
    5.319997E+00    1.561680E+01
    5.329997E+00    1.514028E+01
    5.339997E+00    1.483438E+01
    5.349997E+00    1.471066E+01
    5.359997E+00    1.469766E+01
    5.369997E+00    1.468178E+01
    5.379997E+00    1.455936E+01
    5.389997E+00    1.422948E+01
    5.399997E+00    1.360070E+01
    5.409997E+00    1.267451E+01
    5.419997E+00    1.158717E+01
    5.429997E+00    1.053093E+01
    5.439997E+00    9.652689E+00
    5.449997E+00    9.020980E+00
    5.459997E+00    8.646208E+00
    5.469997E+00    8.510205E+00
    5.479997E+00    8.586919E+00
    5.489997E+00    8.847936E+00
    5.499997E+00    9.246068E+00
    5.509997E+00    9.686639E+00
    5.519997E+00    1.002696E+01
    5.529997E+00    1.014349E+01
    5.539997E+00    1.002544E+01
    5.549997E+00    9.782116E+00
    5.559997E+00    9.543743E+00
    5.569997E+00    9.370997E+00
    5.579997E+00    9.256552E+00
    5.589997E+00    9.184528E+00
    5.599997E+00    9.159223E+00
    5.609997E+00    9.179497E+00
    5.619997E+00    9.224567E+00
    5.629997E+00    9.275175E+00
    5.639997E+00    9.320115E+00
    5.649997E+00    9.343256E+00
    5.659997E+00    9.323132E+00
    5.669997E+00    9.225675E+00
    5.679997E+00    8.998307E+00
    5.689997E+00    8.618259E+00
    5.699997E+00    8.148098E+00
    5.709997E+00    7.709351E+00
    5.719997E+00    7.411664E+00
    5.729997E+00    7.316957E+00
    5.739997E+00    7.441054E+00
    5.749997E+00    7.760756E+00
    5.759997E+00    8.212869E+00
    5.769997E+00    8.693836E+00
    5.779997E+00    9.080024E+00
    5.789997E+00    9.270413E+00
    5.799997E+00    9.205416E+00
    5.809997E+00    8.849158E+00
    5.819997E+00    8.208141E+00
    5.829997E+00    7.373723E+00
    5.839997E+00    6.490179E+00
    5.849997E+00    5.676409E+00
    5.859997E+00    4.991078E+00
    5.869997E+00    4.445886E+00
    5.879997E+00    4.029836E+00
    5.889997E+00    3.725718E+00
    5.899997E+00    3.517769E+00
    5.909997E+00    3.394051E+00
    5.919997E+00    3.346324E+00
    5.929997E+00    3.369113E+00
    5.939997E+00    3.459243E+00
    5.949997E+00    3.615645E+00
    5.959997E+00    3.835489E+00
    5.969997E+00    4.103028E+00
    5.979997E+00    4.377389E+00
    5.989997E+00    4.596315E+00
