 #calculated the component:  1  2  2
 #tolerance:    2.000000E-03
 #broadening:    7.349862E-04Ha
 #scissors shift:    0.000000E+00Ha
 #energy window:    4.938778E+01eV    1.814968E+00Ha
 # Energy      Tot-Re Chi(-2w,w,w)  Tot-Re Chi(-2w,w,w)
 # eV          *10^-7 esu        *10^-12 m/V SI units 
 # 
       0.010000  -9.164453E-02  -3.838797E+00
       0.020000  -9.656703E-02  -4.044990E+00
       0.030000  -1.016354E-01  -4.257295E+00
       0.040000  -1.068548E-01  -4.475925E+00
       0.050000  -1.122305E-01  -4.701102E+00
       0.060000  -1.177681E-01  -4.933059E+00
       0.070000  -1.234733E-01  -5.172038E+00
       0.080000  -1.293522E-01  -5.418291E+00
       0.090000  -1.354110E-01  -5.672082E+00
       0.100000  -1.416564E-01  -5.933688E+00
       0.110000  -1.480952E-01  -6.203396E+00
       0.120000  -1.547346E-01  -6.481507E+00
       0.130000  -1.615821E-01  -6.768336E+00
       0.140000  -1.686456E-01  -7.064212E+00
       0.150000  -1.759334E-01  -7.369480E+00
       0.160000  -1.834539E-01  -7.684501E+00
       0.170000  -1.912164E-01  -8.009652E+00
       0.180000  -1.992301E-01  -8.345329E+00
       0.190000  -2.075050E-01  -8.691947E+00
       0.200000  -2.160515E-01  -9.049943E+00
       0.210000  -2.248805E-01  -9.419771E+00
       0.220000  -2.340034E-01  -9.801912E+00
       0.230000  -2.434323E-01  -1.019687E+01
       0.240000  -2.531798E-01  -1.060517E+01
       0.250000  -2.632592E-01  -1.102737E+01
       0.260000  -2.736844E-01  -1.146406E+01
       0.270000  -2.844701E-01  -1.191586E+01
       0.280000  -2.956319E-01  -1.238340E+01
       0.290000  -3.071859E-01  -1.286737E+01
       0.300000  -3.191494E-01  -1.336850E+01
       0.310000  -3.315406E-01  -1.388754E+01
       0.320000  -3.443785E-01  -1.442529E+01
       0.330000  -3.576833E-01  -1.498260E+01
       0.340000  -3.714764E-01  -1.556037E+01
       0.350000  -3.857803E-01  -1.615953E+01
       0.360000  -4.006189E-01  -1.678109E+01
       0.370000  -4.160175E-01  -1.742610E+01
       0.380000  -4.320029E-01  -1.809569E+01
       0.390000  -4.486033E-01  -1.879105E+01
       0.400000  -4.658490E-01  -1.951344E+01
       0.410000  -4.837719E-01  -2.026419E+01
       0.420000  -5.024059E-01  -2.104473E+01
       0.430000  -5.217871E-01  -2.185657E+01
       0.440000  -5.419540E-01  -2.270131E+01
       0.450000  -5.629474E-01  -2.358069E+01
       0.460000  -5.848110E-01  -2.449651E+01
       0.470000  -6.075913E-01  -2.545072E+01
       0.480000  -6.313379E-01  -2.644542E+01
       0.490000  -6.561039E-01  -2.748282E+01
       0.500000  -6.819461E-01  -2.856529E+01
       0.510000  -7.089252E-01  -2.969539E+01
       0.520000  -7.371063E-01  -3.087584E+01
       0.530000  -7.665593E-01  -3.210956E+01
       0.540000  -7.973593E-01  -3.339971E+01
       0.550000  -8.295867E-01  -3.474965E+01
       0.560000  -8.633285E-01  -3.616302E+01
       0.570000  -8.986780E-01  -3.764374E+01
       0.580000  -9.357361E-01  -3.919602E+01
       0.590000  -9.746115E-01  -4.082443E+01
       0.600000  -1.015422E+00  -4.253390E+01
       0.610000  -1.058295E+00  -4.432975E+01
       0.620000  -1.103368E+00  -4.621776E+01
       0.630000  -1.150791E+00  -4.820420E+01
       0.640000  -1.200726E+00  -5.029588E+01
       0.650000  -1.253350E+00  -5.250021E+01
       0.660000  -1.308856E+00  -5.482524E+01
       0.670000  -1.367454E+00  -5.727977E+01
       0.680000  -1.429372E+00  -5.987338E+01
       0.690000  -1.494861E+00  -6.261658E+01
       0.700000  -1.564194E+00  -6.552082E+01
       0.710000  -1.637673E+00  -6.859869E+01
       0.720000  -1.715625E+00  -7.186394E+01
       0.730000  -1.798412E+00  -7.533169E+01
       0.740000  -1.886428E+00  -7.901853E+01
       0.750000  -1.980110E+00  -8.294266E+01
       0.760000  -2.079934E+00  -8.712407E+01
       0.770000  -2.186423E+00  -9.158466E+01
       0.780000  -2.300149E+00  -9.634840E+01
       0.790000  -2.421736E+00  -1.014414E+02
       0.800000  -2.551862E+00  -1.068921E+02
       0.810000  -2.691256E+00  -1.127311E+02
       0.820000  -2.840694E+00  -1.189907E+02
       0.830000  -3.000985E+00  -1.257050E+02
       0.840000  -3.172945E+00  -1.329080E+02
       0.850000  -3.357358E+00  -1.406327E+02
       0.860000  -3.554899E+00  -1.489073E+02
       0.870000  -3.766030E+00  -1.577511E+02
       0.880000  -3.990848E+00  -1.671682E+02
       0.890000  -4.228970E+00  -1.771427E+02
       0.900000  -4.479803E+00  -1.876495E+02
       0.910000  -4.744741E+00  -1.987472E+02
       0.920000  -5.037975E+00  -2.110302E+02
       0.930000  -5.432477E+00  -2.275551E+02
       0.940000  -6.203123E+00  -2.598358E+02
       0.950000  -7.775007E+00  -3.256787E+02
       0.960000  -9.510125E+00  -3.983592E+02
       0.970000  -1.067436E+01  -4.471266E+02
       0.980000  -1.185640E+01  -4.966396E+02
       0.990000  -1.388132E+01  -5.814593E+02
       1.000000  -1.681958E+01  -7.045371E+02
       1.010000  -1.958743E+01  -8.204764E+02
       1.020000  -2.244234E+01  -9.400626E+02
       1.030000  -2.633056E+01  -1.102932E+03
       1.040000  -3.161619E+01  -1.324336E+03
       1.050000  -3.517635E+01  -1.473463E+03
       1.060000  -2.887869E+01  -1.209668E+03
       1.069999  -7.248017E+00  -3.036042E+02
       1.079999   7.910138E+00   3.313391E+02
       1.089999   7.685815E+00   3.219426E+02
       1.099999   5.173806E+00   2.167199E+02
       1.109999   1.216119E+01   5.094066E+02
       1.119999   3.077815E+01   1.289232E+03
       1.129999   4.133324E+01   1.731363E+03
       1.139999   4.129220E+01   1.729643E+03
       1.149999   3.809583E+01   1.595754E+03
       1.159999   3.480302E+01   1.457826E+03
       1.169999   3.213249E+01   1.345963E+03
       1.179999   3.014349E+01   1.262647E+03
       1.189999   2.881581E+01   1.207034E+03
       1.199999   2.816208E+01   1.179651E+03
       1.209999   2.796550E+01   1.171416E+03
       1.219999   2.804002E+01   1.174537E+03
       1.229999   2.849443E+01   1.193572E+03
       1.239999   2.943473E+01   1.232959E+03
       1.249999   3.089636E+01   1.294184E+03
       1.259999   3.271566E+01   1.370391E+03
       1.269999   3.427714E+01   1.435797E+03
       1.279999   3.386850E+01   1.418680E+03
       1.289999   2.504701E+01   1.049167E+03
       1.299999   4.804749E+00   2.012608E+02
       1.309999  -8.015791E+00  -3.357647E+02
       1.319999  -9.055722E+00  -3.793252E+02
       1.329999  -6.190764E+00  -2.593181E+02
       1.339999  -3.149378E+00  -1.319208E+02
       1.349999  -3.691816E+00  -1.546424E+02
       1.359999  -1.109934E+01  -4.649282E+02
       1.369999  -1.556961E+01  -6.521783E+02
       1.379999  -1.448077E+01  -6.065689E+02
       1.389999  -1.238328E+01  -5.187095E+02
       1.399999  -1.084334E+01  -4.542047E+02
       1.409999  -1.023586E+01  -4.287586E+02
       1.419999  -8.356692E+00  -3.500443E+02
       1.429999  -4.903910E+00  -2.054145E+02
       1.439999  -2.475926E+00  -1.037114E+02
       1.449999  -2.456028E+00  -1.028778E+02
       1.459999  -3.406758E+00  -1.427019E+02
       1.469999  -4.243181E+00  -1.777380E+02
       1.479999  -3.580896E+00  -1.499962E+02
       1.489999   9.178567E-01   3.844709E+01
       1.499999   1.026249E+01   4.298744E+02
       1.509999   1.796477E+01   7.525066E+02
       1.519999   1.991041E+01   8.340055E+02
       1.529999   1.948439E+01   8.161604E+02
       1.539999   1.914601E+01   8.019860E+02
       1.549999   1.885960E+01   7.899892E+02
       1.559999   1.769003E+01   7.409982E+02
       1.569999   1.582485E+01   6.628696E+02
       1.579999   1.323721E+01   5.544789E+02
       1.589999   1.198562E+01   5.020523E+02
       1.599999   1.249908E+01   5.235604E+02
       1.609999   1.098559E+01   4.601631E+02
       1.619999   6.041737E+00   2.530757E+02
       1.629999   1.215609E+00   5.091932E+01
       1.639999  -1.740032E+00  -7.288628E+01
       1.649999  -7.961650E-01  -3.334968E+01
       1.659999   4.149295E+00   1.738052E+02
       1.669999   8.218066E+00   3.442375E+02
       1.679999   9.959354E+00   4.171764E+02
       1.689999   1.057049E+01   4.427756E+02
       1.699999   9.867300E+00   4.133205E+02
       1.709999   6.575202E+00   2.754214E+02
       1.719999   3.543078E+00   1.484121E+02
       1.729999   5.308699E+00   2.223703E+02
       1.739999   9.431484E+00   3.950651E+02
       1.749999   1.160726E+01   4.862039E+02
       1.759999   1.178327E+01   4.935765E+02
       1.769999   1.165126E+01   4.880469E+02
       1.779999   1.146903E+01   4.804137E+02
       1.789999   9.086024E+00   3.805945E+02
       1.799999   4.681602E+00   1.961025E+02
       1.809999   1.792531E-01   7.508534E+00
       1.819999  -3.436331E+00  -1.439407E+02
       1.829999  -4.807649E+00  -2.013823E+02
       1.839999  -1.902442E+00  -7.968932E+01
       1.849999   7.290322E+00   3.053763E+02
       1.859999   1.485210E+01   6.221234E+02
       1.869999   1.666165E+01   6.979214E+02
       1.879999   1.526282E+01   6.393276E+02
       1.889999   1.061987E+01   4.448440E+02
       1.899999   3.942997E+00   1.651639E+02
       1.909999  -3.339212E+00  -1.398726E+02
       1.919999  -8.562905E+00  -3.586821E+02
       1.929999  -1.036853E+01  -4.343158E+02
       1.939999  -9.389681E+00  -3.933141E+02
       1.949999  -1.044450E+01  -4.374980E+02
       1.959999  -1.329856E+01  -5.570487E+02
       1.969999  -1.429519E+01  -5.987953E+02
       1.979999  -1.146948E+01  -4.804324E+02
       1.989999  -4.987406E+00  -2.089120E+02
       1.999999   1.422572E-01   5.958856E+00
       2.009999   4.552496E+00   1.906945E+02
       2.019999   1.364562E+01   5.715865E+02
       2.029999   2.193025E+01   9.186121E+02
       2.039999   2.374593E+01   9.946671E+02
       2.049999   2.270922E+01   9.512417E+02
       2.059999   1.798430E+01   7.533245E+02
       2.069999   7.514643E+00   3.147726E+02
       2.079999  -1.887053E+00  -7.904468E+01
       2.089999  -3.802210E+00  -1.592666E+02
       2.099999   6.682744E-01   2.799261E+01
       2.109999   8.607622E+00   3.605552E+02
       2.119999   1.386800E+01   5.809014E+02
       2.129999   1.538196E+01   6.443182E+02
       2.139999   1.718000E+01   7.196342E+02
       2.149999   1.754931E+01   7.351040E+02
       2.159999   1.408825E+01   5.901271E+02
       2.169999   1.017571E+01   4.262390E+02
       2.179999   7.492005E+00   3.138244E+02
       2.189999   7.628792E+00   3.195541E+02
       2.199999   6.738672E+00   2.822688E+02
       2.209999   3.361424E+00   1.408030E+02
       2.219999  -8.601107E-01  -3.602823E+01
       2.229999  -2.940692E+00  -1.231794E+02
       2.239999  -2.816635E+00  -1.179829E+02
       2.249999  -1.713549E+00  -7.177699E+01
       2.259999  -7.294671E-01  -3.055585E+01
       2.269999  -1.362551E+00  -5.707441E+01
       2.279999  -2.502674E+00  -1.048318E+02
       2.289999  -1.455921E+00  -6.098546E+01
       2.299999   1.061511E+00   4.446445E+01
       2.309999   3.054638E+00   1.279524E+02
       2.319999   4.282083E+00   1.793675E+02
       2.329999   6.425558E+00   2.691531E+02
       2.339999   9.799786E+00   4.104925E+02
       2.349999   1.246809E+01   5.222623E+02
       2.359999   1.317160E+01   5.517308E+02
       2.369999   1.235598E+01   5.175659E+02
       2.379999   9.061927E+00   3.795851E+02
       2.389999   3.752641E+00   1.571902E+02
       2.399999   1.828749E+00   7.660244E+01
       2.409999   3.788250E+00   1.586819E+02
       2.419999   7.560125E+00   3.166778E+02
       2.429999   1.097417E+01   4.596851E+02
       2.439999   1.343103E+01   5.625978E+02
       2.449999   1.357655E+01   5.686933E+02
       2.459999   8.048179E+00   3.371213E+02
       2.469999  -3.099494E-01  -1.298313E+01
       2.479999  -6.052607E+00  -2.535310E+02
       2.489999  -5.000728E+00  -2.094700E+02
       2.499999   4.755504E-01   1.991981E+01
       2.509999   2.943153E+00   1.232825E+02
       2.519999   2.646042E+00   1.108371E+02
       2.529999   1.457391E+00   6.104703E+01
       2.539999  -4.484031E-01  -1.878267E+01
       2.549999  -6.044267E-01  -2.531817E+01
       2.559999  -1.727845E+00  -7.237580E+01
       2.569999  -9.193505E+00  -3.850966E+02
       2.579999  -2.164726E+01  -9.067585E+02
       2.589999  -2.543405E+01  -1.065379E+03
       2.599999  -2.042265E+01  -8.554622E+02
       2.609999  -1.874803E+01  -7.853156E+02
       2.619999  -2.068198E+01  -8.663247E+02
       2.629999  -2.204461E+01  -9.234026E+02
       2.639999  -2.438728E+01  -1.021532E+03
       2.649999  -2.800905E+01  -1.173240E+03
       2.659999  -2.841220E+01  -1.190128E+03
       2.669999  -2.110941E+01  -8.842287E+02
       2.679999  -1.246038E+01  -5.219390E+02
       2.689999  -6.292635E+00  -2.635853E+02
       2.699999  -3.494831E+00  -1.463911E+02
       2.709999  -5.586033E+00  -2.339872E+02
       2.719999  -8.404364E+00  -3.520412E+02
       2.729999  -6.314826E+00  -2.645148E+02
       2.739999  -2.136278E+00  -8.948419E+01
       2.749999  -4.823559E-01  -2.020488E+01
       2.759999  -8.861231E-03  -3.711784E-01
       2.769999  -7.693245E-01  -3.222539E+01
       2.779999  -6.628889E+00  -2.776703E+02
       2.789999  -1.627525E+01  -6.817360E+02
       2.799999  -2.300636E+01  -9.636881E+02
       2.809999  -2.897432E+01  -1.213674E+03
       2.819999  -2.981127E+01  -1.248732E+03
       2.829999  -2.757154E+01  -1.154914E+03
       2.839999  -2.819046E+01  -1.180839E+03
       2.849999  -2.409674E+01  -1.009362E+03
       2.859999  -8.740293E+00  -3.661125E+02
       2.869999   4.675543E+00   1.958487E+02
       2.879999   3.178099E+00   1.331239E+02
       2.889999  -1.184630E+01  -4.962167E+02
       2.899999  -2.517691E+01  -1.054608E+03
       2.909999  -3.083511E+01  -1.291618E+03
       2.919999  -3.384376E+01  -1.417644E+03
       2.929999  -3.436963E+01  -1.439672E+03
       2.939999  -3.322636E+01  -1.391782E+03
       2.949999  -2.926622E+01  -1.225900E+03
       2.959999  -2.030735E+01  -8.506324E+02
       2.969999  -9.900728E+00  -4.147207E+02
       2.979999  -5.406404E+00  -2.264629E+02
       2.989999  -6.014123E+00  -2.519190E+02
       2.999999  -6.238714E+00  -2.613266E+02
       3.009999  -2.781704E+00  -1.165197E+02
       3.019999  -4.498138E-01  -1.884176E+01
       3.029999  -1.089064E+00  -4.561861E+01
       3.039999  -2.875059E+00  -1.204302E+02
       3.049999  -4.049786E+00  -1.696370E+02
       3.059999   1.242296E+00   5.203717E+01
       3.069999   1.397703E+01   5.854683E+02
       3.079999   2.142899E+01   8.976155E+02
       3.089999   2.363982E+01   9.902223E+02
       3.099999   1.990074E+01   8.336001E+02
       3.109999   6.269225E+00   2.626047E+02
       3.119999  -5.520150E+00  -2.312275E+02
       3.129999  -1.002877E+01  -4.200842E+02
       3.139999  -1.305049E+01  -5.466578E+02
       3.149999  -1.548741E+01  -6.487351E+02
       3.159999  -1.492385E+01  -6.251286E+02
       3.169999  -1.221058E+01  -5.114754E+02
       3.179999  -9.630953E+00  -4.034204E+02
       3.189998  -8.948552E+00  -3.748361E+02
       3.199998  -1.008904E+01  -4.226086E+02
       3.209998  -1.223896E+01  -5.126643E+02
       3.219998  -1.330756E+01  -5.574256E+02
       3.229998  -1.200103E+01  -5.026981E+02
       3.239998  -1.177106E+01  -4.930650E+02
       3.249998  -1.162458E+01  -4.869293E+02
       3.259998  -3.600560E+00  -1.508199E+02
       3.269998   1.472913E+01   6.169725E+02
       3.279998   2.533467E+01   1.061216E+03
       3.289998   2.236996E+01   9.370306E+02
       3.299998   9.317421E+00   3.902872E+02
       3.309998  -6.801927E+00  -2.849184E+02
       3.319998  -1.018430E+01  -4.265990E+02
       3.329998  -5.255453E+00  -2.201399E+02
       3.339998  -2.056423E+00  -8.613926E+01
       3.349998  -1.133702E+00  -4.748840E+01
       3.359998  -1.650743E+00  -6.914615E+01
       3.369998  -5.002572E+00  -2.095472E+02
       3.379998  -1.032630E+01  -4.325472E+02
       3.389998  -1.317865E+01  -5.520260E+02
       3.399998  -1.325505E+01  -5.552264E+02
       3.409998  -1.225120E+01  -5.131770E+02
       3.419998  -1.031835E+01  -4.322142E+02
       3.429998  -8.100894E+00  -3.393294E+02
       3.439998  -6.750266E+00  -2.827545E+02
       3.449998  -6.285922E+00  -2.633041E+02
       3.459998  -6.309850E+00  -2.643064E+02
       3.469998  -6.551973E+00  -2.744484E+02
       3.479998  -7.505664E+00  -3.143965E+02
       3.489998  -9.624509E+00  -4.031505E+02
       3.499998  -1.116861E+01  -4.678294E+02
       3.509998  -1.125886E+01  -4.716102E+02
       3.519998  -9.304558E+00  -3.897484E+02
       3.529998  -7.155112E+00  -2.997126E+02
       3.539998  -6.715868E+00  -2.813136E+02
       3.549998  -7.121193E+00  -2.982918E+02
       3.559998  -8.187212E+00  -3.429451E+02
       3.569998  -9.491276E+00  -3.975697E+02
       3.579998  -9.955424E+00  -4.170118E+02
       3.589998  -9.515587E+00  -3.985880E+02
       3.599998  -9.740453E+00  -4.080071E+02
       3.609998  -1.022990E+01  -4.285090E+02
       3.619998  -9.033454E+00  -3.783924E+02
       3.629998  -6.527248E+00  -2.734127E+02
       3.639998  -5.013868E+00  -2.100204E+02
       3.649998  -4.930401E+00  -2.065241E+02
       3.659998  -5.299516E+00  -2.219856E+02
       3.669998  -5.945986E+00  -2.490649E+02
       3.679998  -6.961194E+00  -2.915898E+02
       3.689998  -8.144633E+00  -3.411616E+02
       3.699998  -9.217685E+00  -3.861095E+02
       3.709998  -1.027765E+01  -4.305093E+02
       3.719998  -1.109818E+01  -4.648795E+02
       3.729998  -1.109494E+01  -4.647438E+02
       3.739998  -1.014780E+01  -4.250702E+02
       3.749998  -7.930439E+00  -3.321895E+02
       3.759998  -6.213146E+00  -2.602557E+02
       3.769998  -6.562355E+00  -2.748833E+02
       3.779998  -8.158039E+00  -3.417232E+02
       3.789998  -1.017513E+01  -4.262148E+02
       3.799998  -1.039038E+01  -4.352313E+02
       3.809998  -9.547522E+00  -3.999257E+02
       3.819998  -7.641458E+00  -3.200846E+02
       3.829998  -3.743525E+00  -1.568084E+02
       3.839998  -4.370647E-01  -1.830772E+01
       3.849998   1.454702E+00   6.093440E+01
       3.859998   2.550918E+00   1.068526E+02
       3.869998   1.479006E+00   6.195245E+01
       3.879998  -1.006043E+00  -4.214101E+01
       3.889998  -3.610003E+00  -1.512155E+02
       3.899998  -4.939246E+00  -2.068947E+02
       3.909998  -4.166446E+00  -1.745237E+02
       3.919998  -9.377358E-01  -3.927978E+01
       3.929998   3.392211E+00   1.420926E+02
       3.939998   5.908172E+00   2.474809E+02
       3.949998   6.873766E+00   2.879277E+02
       3.959998   6.958292E+00   2.914682E+02
       3.969998   6.622649E+00   2.774089E+02
       3.979998   5.818383E+00   2.437199E+02
       3.989998   4.669654E+00   1.956020E+02
       3.999998   3.276127E+00   1.372301E+02
       4.009998   1.628292E+00   6.820573E+01
       4.019998   4.551842E-01   1.906671E+01
       4.029998   7.614193E-01   3.189426E+01
       4.039998   1.768708E+00   7.408745E+01
       4.049998   1.611919E+00   6.751992E+01
       4.059998   5.484403E-01   2.297301E+01
       4.069998  -1.114188E+00  -4.667102E+01
       4.079998  -2.254070E+00  -9.441827E+01
       4.089998  -2.447606E+00  -1.025251E+02
       4.099998  -2.284255E+00  -9.568264E+01
       4.109998  -1.941170E+00  -8.131153E+01
       4.119998  -2.099650E+00  -8.794995E+01
       4.129998  -3.121285E+00  -1.307441E+02
       4.139998  -4.822273E+00  -2.019949E+02
       4.149998  -6.458050E+00  -2.705142E+02
       4.159998  -7.503063E+00  -3.142876E+02
       4.169998  -7.832868E+00  -3.281024E+02
       4.179998  -8.004240E+00  -3.352808E+02
       4.189998  -7.684002E+00  -3.218667E+02
       4.199998  -6.363605E+00  -2.665581E+02
       4.209998  -4.334831E+00  -1.815770E+02
       4.219998  -3.316741E+00  -1.389313E+02
       4.229998  -4.908504E+00  -2.056070E+02
       4.239998  -7.827052E+00  -3.278588E+02
       4.249998  -1.000811E+01  -4.192186E+02
       4.259998  -1.138925E+01  -4.770717E+02
       4.269998  -1.252692E+01  -5.247263E+02
       4.279998  -1.266735E+01  -5.306089E+02
